OOIBase32 Version 1.0.0.8 Data File
++++++++++++++++++++++++++++++++++++
Date: Wednesday, January 16, 1980, 02:41:58
User: Valued Ocean Optics Customer
Spectrometer Serial Number: Unknown
Spectrometer Channel: Master
Integration Time (msec): 3
Spectra Averaged: 10
Boxcar Smoothing: 0
Correct for Electrical Dark: Disabled
Time Normalized: Disabled
Dual-beam Reference: Disabled
Reference Channel: Master
>>>>>Begin Spectral Data<<<<<
179.00	0.0000
179.38	0.0000
179.75	68.4000
180.13	70.8000
180.51	71.5000
180.88	72.7000
181.26	71.5000
181.64	70.9000
182.02	71.1000
182.39	71.4000
182.77	70.4000
183.15	70.0000
183.52	71.4000
183.90	70.8000
184.28	71.5000
184.65	72.3000
185.03	72.0000
185.41	70.9000
185.78	72.1000
186.16	71.6000
186.53	70.8000
186.91	72.0000
187.29	71.5000
187.66	71.7000
188.04	69.1000
188.42	71.7000
188.79	71.0000
189.17	71.3000
189.55	72.4000
189.92	71.9000
190.30	71.9000
190.67	72.7000
191.05	72.3000
191.43	70.5000
191.80	71.9000
192.18	70.8000
192.56	72.4000
192.93	70.6000
193.31	70.1000
193.68	71.0000
194.06	71.6000
194.44	72.7000
194.81	71.0000
195.19	71.8000
195.56	71.4000
195.94	71.8000
196.32	71.0000
196.69	70.3000
197.07	70.8000
197.44	71.5000
197.82	72.9000
198.19	72.7000
198.57	72.6000
198.95	71.6000
199.32	72.7000
199.70	71.7000
200.07	70.8000
200.45	71.8000
200.82	70.0000
201.20	72.1000
201.57	73.1000
201.95	71.5000
202.33	72.1000
202.70	72.2000
203.08	71.0000
203.45	71.3000
203.83	71.0000
204.20	72.1000
204.58	71.7000
204.95	71.5000
205.33	73.3000
205.70	71.0000
206.08	72.4000
206.45	71.7000
206.83	71.6000
207.20	72.4000
207.58	70.9000
207.95	72.6000
208.33	72.5000
208.70	71.5000
209.08	73.8000
209.45	72.1000
209.83	71.7000
210.20	71.7000
210.58	71.8000
210.95	72.2000
211.33	72.6000
211.70	72.7000
212.08	71.9000
212.45	71.6000
212.83	71.7000
213.20	73.2000
213.58	70.6000
213.95	72.1000
214.33	70.9000
214.70	71.1000
215.07	71.7000
215.45	72.9000
215.82	71.1000
216.20	72.3000
216.57	73.4000
216.95	72.5000
217.32	71.6000
217.70	72.5000
218.07	72.3000
218.44	70.6000
218.82	72.5000
219.19	74.6000
219.57	72.1000
219.94	72.3000
220.32	71.3000
220.69	71.1000
221.06	72.1000
221.44	71.5000
221.81	73.1000
222.19	72.0000
222.56	72.4000
222.93	73.6000
223.31	71.1000
223.68	70.9000
224.06	72.1000
224.43	72.2000
224.80	71.5000
225.18	71.0000
225.55	72.5000
225.92	73.3000
226.30	72.2000
226.67	72.2000
227.05	72.2000
227.42	70.1000
227.79	71.7000
228.17	71.5000
228.54	73.0000
228.91	72.9000
229.29	72.7000
229.66	72.3000
230.03	72.1000
230.41	72.7000
230.78	72.6000
231.15	71.9000
231.53	72.4000
231.90	73.5000
232.27	70.7000
232.65	72.9000
233.02	72.0000
233.39	73.8000
233.77	72.9000
234.14	72.4000
234.51	70.3000
234.89	71.4000
235.26	72.8000
235.63	72.4000
236.01	72.6000
236.38	73.9000
236.75	72.5000
237.12	72.1000
237.50	72.7000
237.87	71.3000
238.24	71.1000
238.62	71.3000
238.99	71.9000
239.36	72.9000
239.73	72.6000
240.11	72.8000
240.48	72.4000
240.85	72.4000
241.23	73.1000
241.60	71.7000
241.97	72.6000
242.34	73.1000
242.72	71.2000
243.09	72.4000
243.46	70.6000
243.83	69.2000
244.21	72.0000
244.58	72.7000
244.95	72.2000
245.32	70.7000
245.70	72.6000
246.07	72.1000
246.44	72.9000
246.81	73.5000
247.18	72.7000
247.56	72.6000
247.93	72.6000
248.30	72.5000
248.67	71.9000
249.04	71.5000
249.42	72.6000
249.79	73.3000
250.16	73.0000
250.53	74.2000
250.90	73.7000
251.28	72.0000
251.65	72.5000
252.02	71.4000
252.39	72.5000
252.76	72.3000
253.14	72.0000
253.51	73.8000
253.88	72.1000
254.25	71.8000
254.62	71.6000
254.99	71.5000
255.37	71.2000
255.74	72.1000
256.11	72.8000
256.48	72.8000
256.85	72.6000
257.22	72.8000
257.59	73.0000
257.97	73.6000
258.34	72.5000
258.71	71.3000
259.08	71.1000
259.45	72.3000
259.82	73.5000
260.19	73.2000
260.56	72.4000
260.94	73.0000
261.31	73.1000
261.68	74.5000
262.05	72.2000
262.42	72.7000
262.79	73.0000
263.16	73.0000
263.53	74.6000
263.90	74.1000
264.28	75.1000
264.65	73.3000
265.02	73.7000
265.39	74.3000
265.76	73.8000
266.13	73.8000
266.50	75.7000
266.87	75.7000
267.24	74.9000
267.61	74.8000
267.98	75.0000
268.35	75.7000
268.72	76.3000
269.09	74.7000
269.46	73.9000
269.84	75.3000
270.21	75.2000
270.58	75.7000
270.95	75.5000
271.32	76.1000
271.69	76.4000
272.06	75.7000
272.43	76.8000
272.80	73.9000
273.17	76.8000
273.54	74.4000
273.91	77.8000
274.28	75.4000
274.65	75.0000
275.02	76.3000
275.39	76.1000
275.76	75.7000
276.13	75.1000
276.50	76.2000
276.87	76.7000
277.24	77.9000
277.61	77.6000
277.98	76.7000
278.35	77.7000
278.72	76.1000
279.09	76.6000
279.46	75.9000
279.83	75.8000
280.20	77.0000
280.57	77.8000
280.94	77.0000
281.31	78.3000
281.67	76.3000
282.04	77.2000
282.41	79.0000
282.78	77.3000
283.15	77.5000
283.52	78.0000
283.89	79.5000
284.26	80.0000
284.63	79.3000
285.00	78.4000
285.37	78.6000
285.74	77.0000
286.11	77.6000
286.48	78.9000
286.85	78.1000
287.21	78.3000
287.58	77.6000
287.95	79.1000
288.32	79.1000
288.69	79.6000
289.06	78.8000
289.43	79.4000
289.80	79.2000
290.17	78.0000
290.54	78.8000
290.90	82.0000
291.27	79.7000
291.64	79.8000
292.01	79.0000
292.38	78.9000
292.75	79.5000
293.12	78.4000
293.48	79.6000
293.85	79.6000
294.22	79.3000
294.59	81.1000
294.96	80.5000
295.33	79.5000
295.70	80.9000
296.06	79.5000
296.43	79.4000
296.80	80.2000
297.17	79.4000
297.54	81.5000
297.91	80.3000
298.27	80.2000
298.64	81.5000
299.01	81.0000
299.38	79.8000
299.75	80.8000
300.11	80.4000
300.48	79.7000
300.85	81.5000
301.22	82.0000
301.59	82.1000
301.95	81.2000
302.32	80.2000
302.69	80.9000
303.06	81.3000
303.43	80.7000
303.79	82.2000
304.16	82.0000
304.53	82.7000
304.90	83.7000
305.26	81.2000
305.63	81.9000
306.00	81.8000
306.37	81.6000
306.73	80.2000
307.10	80.2000
307.47	81.1000
307.84	81.3000
308.20	82.5000
308.57	82.1000
308.94	81.3000
309.31	83.1000
309.67	81.7000
310.04	82.9000
310.41	81.3000
310.77	81.2000
311.14	82.1000
311.51	83.2000
311.88	82.4000
312.24	82.3000
312.61	83.6000
312.98	82.7000
313.34	81.4000
313.71	81.3000
314.08	84.2000
314.44	83.4000
314.81	82.4000
315.18	84.0000
315.55	83.9000
315.91	82.2000
316.28	83.6000
316.65	84.0000
317.01	82.9000
317.38	83.0000
317.75	84.0000
318.11	82.6000
318.48	83.5000
318.84	83.8000
319.21	84.4000
319.58	84.0000
319.94	82.9000
320.31	82.6000
320.68	83.4000
321.04	84.5000
321.41	83.4000
321.78	82.7000
322.14	84.0000
322.51	84.7000
322.87	84.5000
323.24	84.4000
323.61	85.3000
323.97	83.3000
324.34	83.8000
324.70	84.2000
325.07	84.5000
325.44	85.4000
325.80	85.0000
326.17	84.2000
326.53	85.2000
326.90	84.9000
327.27	85.4000
327.63	85.7000
328.00	85.8000
328.36	86.1000
328.73	86.9000
329.09	86.5000
329.46	85.7000
329.83	85.1000
330.19	84.4000
330.56	86.3000
330.92	87.2000
331.29	86.5000
331.65	86.2000
332.02	86.6000
332.38	88.7000
332.75	87.4000
333.11	88.4000
333.48	87.7000
333.84	86.6000
334.21	85.8000
334.58	87.8000
334.94	86.4000
335.31	88.2000
335.67	88.4000
336.04	87.9000
336.40	87.5000
336.77	87.4000
337.13	87.1000
337.50	86.9000
337.86	86.7000
338.22	88.3000
338.59	88.0000
338.95	87.6000
339.32	89.8000
339.68	88.9000
340.05	89.5000
340.41	89.2000
340.78	89.6000
341.14	86.8000
341.51	90.3000
341.87	87.6000
342.24	90.4000
342.60	88.9000
342.96	91.2000
343.33	92.4000
343.69	91.0000
344.06	90.5000
344.42	90.3000
344.79	90.1000
345.15	92.2000
345.51	92.6000
345.88	92.7000
346.24	91.8000
346.61	91.7000
346.97	94.7000
347.34	92.9000
347.70	92.1000
348.06	92.7000
348.43	94.1000
348.79	94.2000
349.16	93.6000
349.52	95.7000
349.88	93.8000
350.25	92.4000
350.61	95.1000
350.97	94.3000
351.34	95.5000
351.70	96.5000
352.07	95.5000
352.43	96.4000
352.79	96.3000
353.16	96.8000
353.52	96.4000
353.88	94.6000
354.25	97.2000
354.61	97.0000
354.97	98.1000
355.34	98.9000
355.70	99.4000
356.06	97.9000
356.43	100.0000
356.79	98.5000
357.15	99.5000
357.52	98.7000
357.88	97.5000
358.24	99.7000
358.60	99.9000
358.97	100.2000
359.33	101.0000
359.69	100.0000
360.06	100.6000
360.42	101.7000
360.78	102.3000
361.14	101.8000
361.51	103.3000
361.87	104.0000
362.23	105.2000
362.60	104.5000
362.96	104.7000
363.32	104.7000
363.68	106.0000
364.05	105.6000
364.41	105.4000
364.77	110.0000
365.13	109.3000
365.50	109.2000
365.86	110.2000
366.22	112.6000
366.58	110.7000
366.95	110.4000
367.31	109.7000
367.67	110.5000
368.03	108.9000
368.39	112.0000
368.76	112.2000
369.12	109.8000
369.48	111.2000
369.84	110.1000
370.20	114.4000
370.57	114.0000
370.93	113.0000
371.29	113.4000
371.65	115.0000
372.01	114.8000
372.38	113.8000
372.74	116.0000
373.10	115.2000
373.46	117.9000
373.82	116.6000
374.18	116.2000
374.55	115.1000
374.91	118.5000
375.27	119.6000
375.63	118.7000
375.99	119.1000
376.35	118.9000
376.71	116.9000
377.08	119.4000
377.44	121.8000
377.80	123.5000
378.16	123.8000
378.52	125.9000
378.88	127.2000
379.24	125.5000
379.60	128.3000
379.97	130.6000
380.33	128.8000
380.69	126.2000
381.05	129.4000
381.41	131.9000
381.77	129.7000
382.13	131.2000
382.49	131.3000
382.85	129.6000
383.21	134.1000
383.57	129.2000
383.94	135.1000
384.30	134.1000
384.66	132.6000
385.02	131.0000
385.38	133.2000
385.74	133.3000
386.10	134.7000
386.46	141.5000
386.82	139.3000
387.18	140.6000
387.54	139.1000
387.90	136.5000
388.26	142.6000
388.62	141.6000
388.98	137.6000
389.34	139.3000
389.70	139.7000
390.06	135.0000
390.42	134.8000
390.78	145.6000
391.14	149.3000
391.50	146.6000
391.86	151.0000
392.22	155.9000
392.58	151.2000
392.94	138.6000
393.30	143.1000
393.66	147.9000
394.02	148.9000
394.38	137.6000
394.74	142.0000
395.10	145.9000
395.46	147.2000
395.82	149.3000
396.18	145.0000
396.54	156.3000
396.90	159.7000
397.26	156.9000
397.62	154.5000
397.98	163.3000
398.34	148.9000
398.70	152.3000
399.05	144.2000
399.41	144.8000
399.77	145.7000
400.13	151.3000
400.49	156.8000
400.85	154.5000
401.21	149.2000
401.57	156.6000
401.93	150.3000
402.29	150.7000
402.65	152.7000
403.00	156.0000
403.36	157.1000
403.72	155.3000
404.08	170.1000
404.44	157.5000
404.80	160.6000
405.16	162.4000
405.52	160.9000
405.87	162.1000
406.23	160.2000
406.59	150.0000
406.95	155.3000
407.31	158.6000
407.67	158.8000
408.03	158.5000
408.38	162.7000
408.74	172.5000
409.10	172.1000
409.46	161.3000
409.82	165.7000
410.17	163.9000
410.53	160.6000
410.89	161.1000
411.25	151.4000
411.61	160.7000
411.97	168.0000
412.32	169.8000
412.68	172.5000
413.04	162.6000
413.40	153.2000
413.75	158.1000
414.11	158.6000
414.47	156.9000
414.83	172.8000
415.19	162.1000
415.54	156.2000
415.90	169.7000
416.26	164.0000
416.62	167.9000
416.97	156.5000
417.33	171.7000
417.69	169.9000
418.05	166.3000
418.40	159.0000
418.76	161.1000
419.12	172.0000
419.48	175.1000
419.83	185.3000
420.19	169.6000
420.55	172.9000
420.90	191.0000
421.26	184.6000
421.62	169.4000
421.98	181.6000
422.33	189.7000
422.69	189.9000
423.05	186.0000
423.40	168.5000
423.76	163.6000
424.12	178.2000
424.47	179.7000
424.83	171.4000
425.19	172.6000
425.54	172.7000
425.90	182.3000
426.26	183.4000
426.61	188.6000
426.97	160.9000
427.33	180.7000
427.68	177.9000
428.04	197.0000
428.40	198.2000
428.75	207.3000
429.11	188.7000
429.47	210.4000
429.82	206.7000
430.18	197.1000
430.53	190.3000
430.89	187.7000
431.25	183.6000
431.60	191.2000
431.96	184.8000
432.31	185.4000
432.67	197.8000
433.03	205.2000
433.38	192.4000
433.74	194.9000
434.09	196.0000
434.45	192.1000
434.81	185.7000
435.16	196.7000
435.52	186.9000
435.87	181.4000
436.23	183.1000
436.58	183.0000
436.94	192.6000
437.30	197.9000
437.65	201.2000
438.01	202.3000
438.36	191.4000
438.72	186.9000
439.07	182.5000
439.43	189.5000
439.78	201.7000
440.14	219.9000
440.49	198.4000
440.85	203.2000
441.20	215.9000
441.56	204.6000
441.91	216.4000
442.27	202.4000
442.62	204.4000
442.98	211.5000
443.33	204.3000
443.69	210.1000
444.04	203.4000
444.40	190.9000
444.75	211.7000
445.11	218.5000
445.46	220.6000
445.82	218.1000
446.17	205.9000
446.53	213.9000
446.88	230.9000
447.23	198.8000
447.59	201.4000
447.94	202.5000
448.30	207.6000
448.65	203.5000
449.01	214.0000
449.36	213.4000
449.72	219.5000
450.07	227.5000
450.42	219.2000
450.78	209.6000
451.13	218.8000
451.49	209.1000
451.84	209.4000
452.19	200.6000
452.55	206.2000
452.90	212.0000
453.26	223.0000
453.61	228.9000
453.96	200.2000
454.32	220.9000
454.67	214.4000
455.02	197.7000
455.38	206.5000
455.73	213.0000
456.09	226.5000
456.44	228.9000
456.79	228.2000
457.15	220.3000
457.50	219.1000
457.85	219.1000
458.21	222.5000
458.56	221.7000
458.91	218.8000
459.27	209.7000
459.62	214.7000
459.97	218.6000
460.32	220.8000
460.68	213.7000
461.03	208.3000
461.38	210.8000
461.74	229.3000
462.09	225.1000
462.44	216.5000
462.80	224.7000
463.15	225.6000
463.50	221.9000
463.85	230.3000
464.21	239.6000
464.56	247.0000
464.91	227.6000
465.26	228.7000
465.62	231.4000
465.97	238.6000
466.32	234.9000
466.67	231.4000
467.03	228.1000
467.38	230.9000
467.73	230.1000
468.08	237.0000
468.44	237.7000
468.79	230.7000
469.14	221.7000
469.49	229.7000
469.85	231.1000
470.20	247.3000
470.55	250.6000
470.90	249.8000
471.25	236.4000
471.61	248.5000
471.96	251.9000
472.31	260.0000
472.66	262.3000
473.01	264.9000
473.36	268.8000
473.72	273.1000
474.07	278.5000
474.42	279.1000
474.77	279.5000
475.12	286.1000
475.47	286.4000
475.83	289.6000
476.18	282.9000
476.53	285.2000
476.88	297.0000
477.23	299.2000
477.58	295.2000
477.93	295.2000
478.28	296.7000
478.64	303.5000
478.99	312.1000
479.34	314.4000
479.69	317.0000
480.04	321.9000
480.39	322.3000
480.74	318.2000
481.09	332.5000
481.44	331.0000
481.79	328.5000
482.15	333.6000
482.50	338.4000
482.85	341.7000
483.20	357.1000
483.55	358.8000
483.90	372.0000
484.25	434.8000
484.60	478.7000
484.95	513.6000
485.30	490.0000
485.65	441.4000
486.00	423.0000
486.35	390.5000
486.70	372.2000
487.05	375.2000
487.40	369.0000
487.75	367.2000
488.10	367.0000
488.45	365.0000
488.80	366.4000
489.15	370.7000
489.50	372.2000
489.85	371.6000
490.20	370.1000
490.55	374.8000
490.90	374.3000
491.25	379.3000
491.60	371.1000
491.95	373.5000
492.30	377.8000
492.65	380.4000
493.00	379.9000
493.35	382.1000
493.70	383.9000
494.05	379.5000
494.40	385.1000
494.75	391.6000
495.10	391.8000
495.45	393.0000
495.80	394.1000
496.15	391.7000
496.50	379.8000
496.84	382.0000
497.19	383.3000
497.54	388.5000
497.89	390.1000
498.24	390.8000
498.59	393.4000
498.94	388.7000
499.29	385.3000
499.64	386.3000
499.99	392.2000
500.33	396.4000
500.68	395.2000
501.03	397.3000
501.38	403.8000
501.73	399.0000
502.08	399.5000
502.43	401.0000
502.77	399.5000
503.12	395.7000
503.47	394.3000
503.82	395.6000
504.17	397.2000
504.52	401.5000
504.86	397.0000
505.21	405.9000
505.56	399.6000
505.91	396.5000
506.26	396.1000
506.61	404.5000
506.95	399.7000
507.30	398.7000
507.65	400.9000
508.00	400.8000
508.35	397.3000
508.69	395.7000
509.04	401.4000
509.39	399.9000
509.74	398.9000
510.08	403.8000
510.43	407.7000
510.78	402.8000
511.13	404.8000
511.47	405.4000
511.82	408.7000
512.17	402.8000
512.52	404.4000
512.86	404.8000
513.21	409.9000
513.56	404.6000
513.91	409.9000
514.25	403.1000
514.60	405.0000
514.95	407.9000
515.30	408.5000
515.64	410.9000
515.99	414.0000
516.34	410.7000
516.68	410.8000
517.03	410.0000
517.38	409.7000
517.72	417.3000
518.07	414.9000
518.42	418.6000
518.76	418.0000
519.11	413.4000
519.46	418.3000
519.80	410.7000
520.15	411.9000
520.50	408.6000
520.84	411.2000
521.19	414.8000
521.54	414.9000
521.88	409.6000
522.23	415.6000
522.58	417.0000
522.92	418.5000
523.27	419.1000
523.61	419.2000
523.96	416.7000
524.31	419.7000
524.65	419.7000
525.00	419.9000
525.34	412.1000
525.69	415.3000
526.04	413.6000
526.38	418.0000
526.73	416.4000
527.07	419.0000
527.42	419.1000
527.76	424.2000
528.11	425.7000
528.46	420.5000
528.80	421.8000
529.15	419.1000
529.49	415.2000
529.84	419.0000
530.18	416.5000
530.53	420.6000
530.87	420.5000
531.22	416.4000
531.56	422.5000
531.91	423.8000
532.25	428.3000
532.60	431.0000
532.94	427.9000
533.29	424.9000
533.63	427.4000
533.98	422.3000
534.32	422.9000
534.67	429.9000
535.01	423.9000
535.36	418.6000
535.70	422.9000
536.05	420.1000
536.39	424.9000
536.74	421.0000
537.08	421.9000
537.43	423.3000
537.77	429.0000
538.12	431.2000
538.46	430.9000
538.80	430.1000
539.15	424.1000
539.49	428.9000
539.84	431.9000
540.18	433.2000
540.53	428.8000
540.87	430.9000
541.21	435.9000
541.56	436.5000
541.90	431.6000
542.25	429.7000
542.59	426.8000
542.93	433.9000
543.28	429.5000
543.62	434.4000
543.97	430.8000
544.31	429.7000
544.65	427.0000
545.00	426.9000
545.34	426.1000
545.68	430.2000
546.03	426.9000
546.37	436.1000
546.71	441.9000
547.06	442.3000
547.40	440.7000
547.74	439.2000
548.09	432.0000
548.43	431.1000
548.77	427.4000
549.12	423.8000
549.46	421.4000
549.80	420.5000
550.15	422.8000
550.49	425.9000
550.83	431.2000
551.17	432.6000
551.52	430.7000
551.86	434.0000
552.20	432.7000
552.55	431.4000
552.89	429.8000
553.23	429.8000
553.57	428.7000
553.92	429.0000
554.26	434.5000
554.60	436.3000
554.94	437.9000
555.29	436.3000
555.63	430.6000
555.97	430.5000
556.31	430.7000
556.66	429.6000
557.00	425.9000
557.34	425.9000
557.68	423.9000
558.02	423.8000
558.37	427.0000
558.71	429.6000
559.05	434.3000
559.39	441.5000
559.73	444.2000
560.08	440.4000
560.42	440.0000
560.76	440.5000
561.10	431.6000
561.44	431.6000
561.78	435.7000
562.13	434.5000
562.47	432.5000
562.81	436.1000
563.15	434.5000
563.49	437.2000
563.83	438.5000
564.17	436.6000
564.52	434.2000
564.86	434.6000
565.20	434.6000
565.54	432.1000
565.88	439.0000
566.22	440.7000
566.56	444.4000
566.90	452.8000
567.24	456.9000
567.59	461.1000
567.93	466.3000
568.27	477.6000
568.61	489.0000
568.95	487.8000
569.29	493.4000
569.63	508.1000
569.97	506.4000
570.31	510.1000
570.65	518.3000
570.99	521.2000
571.33	520.0000
571.67	509.6000
572.01	517.9000
572.35	536.2000
572.69	540.0000
573.03	546.9000
573.37	554.8000
573.71	557.1000
574.05	548.3000
574.39	537.1000
574.73	537.0000
575.07	536.1000
575.41	538.0000
575.75	542.6000
576.09	560.8000
576.43	579.2000
576.77	594.1000
577.11	591.5000
577.45	577.7000
577.79	554.1000
578.13	552.6000
578.47	545.0000
578.81	550.9000
579.15	543.6000
579.49	547.9000
579.83	582.0000
580.17	614.9000
580.51	644.6000
580.85	643.9000
581.19	614.3000
581.53	583.8000
581.87	554.4000
582.20	525.3000
582.54	510.7000
582.88	508.4000
583.22	519.7000
583.56	535.4000
583.90	561.3000
584.24	568.0000
584.58	561.6000
584.92	550.6000
585.25	536.0000
585.59	528.2000
585.93	530.9000
586.27	538.1000
586.61	534.0000
586.95	532.2000
587.29	525.4000
587.62	513.8000
587.96	499.0000
588.30	486.8000
588.64	484.5000
588.98	480.2000
589.31	477.8000
589.65	466.4000
589.99	460.3000
590.33	461.6000
590.67	461.0000
591.01	470.8000
591.34	489.1000
591.68	513.1000
592.02	525.0000
592.36	524.5000
592.69	511.4000
593.03	496.9000
593.37	497.6000
593.71	498.0000
594.04	507.0000
594.38	498.7000
594.72	492.5000
595.06	480.3000
595.39	474.2000
595.73	475.0000
596.07	477.5000
596.41	476.3000
596.74	475.7000
597.08	474.9000
597.42	487.4000
597.76	494.2000
598.09	501.1000
598.43	497.8000
598.77	504.1000
599.10	506.7000
599.44	504.2000
599.78	499.7000
600.11	497.6000
600.45	493.3000
600.79	485.1000
601.12	486.6000
601.46	480.9000
601.80	494.0000
602.13	493.5000
602.47	500.3000
602.81	493.9000
603.14	485.9000
603.48	478.2000
603.82	476.3000
604.15	475.4000
604.49	477.3000
604.82	482.0000
605.16	479.0000
605.50	470.6000
605.83	475.7000
606.17	477.6000
606.50	477.1000
606.84	469.2000
607.18	466.4000
607.51	466.1000
607.85	458.6000
608.18	455.6000
608.52	462.1000
608.86	460.4000
609.19	464.3000
609.53	458.2000
609.86	458.1000
610.20	459.8000
610.53	457.1000
610.87	448.9000
611.20	459.7000
611.54	445.8000
611.87	450.2000
612.21	449.2000
612.54	444.2000
612.88	441.2000
613.21	450.3000
613.55	449.1000
613.88	455.0000
614.22	459.2000
614.55	458.8000
614.89	450.0000
615.22	440.4000
615.56	434.5000
615.89	434.4000
616.23	430.5000
616.56	424.6000
616.90	429.0000
617.23	425.2000
617.57	426.8000
617.90	416.9000
618.24	420.8000
618.57	423.2000
618.90	421.8000
619.24	418.1000
619.57	413.6000
619.91	406.9000
620.24	398.4000
620.58	405.5000
620.91	411.7000
621.24	409.2000
621.58	414.8000
621.91	414.4000
622.25	419.4000
622.58	412.5000
622.91	416.8000
623.25	411.4000
623.58	412.3000
623.91	407.2000
624.25	404.2000
624.58	400.8000
624.92	398.4000
625.25	394.0000
625.58	391.9000
625.92	394.2000
626.25	395.8000
626.58	396.0000
626.92	388.0000
627.25	385.5000
627.58	385.8000
627.91	385.6000
628.25	386.1000
628.58	387.7000
628.91	386.3000
629.25	383.0000
629.58	382.6000
629.91	378.7000
630.25	379.7000
630.58	373.9000
630.91	373.1000
631.24	368.7000
631.58	373.6000
631.91	371.9000
632.24	365.0000
632.57	368.0000
632.91	368.6000
633.24	367.3000
633.57	364.9000
633.90	366.4000
634.24	365.7000
634.57	363.0000
634.90	363.2000
635.23	358.6000
635.56	365.2000
635.90	361.6000
636.23	365.2000
636.56	362.2000
636.89	364.4000
637.22	362.8000
637.56	361.2000
637.89	353.0000
638.22	357.2000
638.55	355.0000
638.88	350.7000
639.21	350.2000
639.55	349.5000
639.88	345.3000
640.21	349.5000
640.54	345.9000
640.87	344.6000
641.20	346.3000
641.53	344.9000
641.87	344.5000
642.20	344.3000
642.53	343.7000
642.86	342.7000
643.19	343.5000
643.52	341.9000
643.85	339.8000
644.18	338.0000
644.51	334.8000
644.84	339.1000
645.18	336.4000
645.51	335.2000
645.84	335.0000
646.17	335.0000
646.50	334.9000
646.83	339.7000
647.16	337.4000
647.49	338.3000
647.82	340.9000
648.15	342.2000
648.48	343.9000
648.81	341.0000
649.14	334.8000
649.47	337.3000
649.80	332.1000
650.13	330.2000
650.46	335.4000
650.79	334.4000
651.12	336.4000
651.45	335.8000
651.78	332.7000
652.11	336.4000
652.44	333.2000
652.77	331.7000
653.10	331.4000
653.43	332.8000
653.76	336.3000
654.09	351.1000
654.42	557.0000
654.75	861.4000
655.08	1024.9000
655.41	1042.1000
655.74	819.0000
656.07	671.7000
656.39	575.3000
656.72	496.2000
657.05	426.8000
657.38	375.2000
657.71	347.8000
658.04	337.3000
658.37	330.8000
658.70	329.7000
659.03	322.5000
659.36	321.5000
659.68	321.5000
660.01	318.0000
660.34	317.5000
660.67	317.3000
661.00	320.0000
661.33	313.3000
661.66	311.5000
661.98	319.0000
662.31	314.7000
662.64	312.1000
662.97	312.5000
663.30	317.2000
663.63	314.4000
663.95	314.9000
664.28	313.8000
664.61	314.0000
664.94	315.4000
665.27	312.8000
665.59	310.1000
665.92	311.6000
666.25	307.5000
666.58	307.3000
666.91	309.8000
667.23	306.3000
667.56	305.6000
667.89	306.5000
668.22	307.3000
668.54	306.6000
668.87	309.1000
669.20	305.9000
669.53	306.1000
669.85	307.8000
670.18	308.2000
670.51	307.6000
670.83	312.8000
671.16	312.7000
671.49	313.1000
671.82	313.4000
672.14	308.3000
672.47	305.7000
672.80	305.6000
673.12	304.3000
673.45	303.2000
673.78	298.2000
674.10	300.8000
674.43	300.1000
674.76	297.8000
675.08	297.1000
675.41	296.1000
675.74	300.5000
676.06	298.5000
676.39	297.0000
676.72	296.2000
677.04	299.6000
677.37	299.6000
677.69	293.9000
678.02	296.7000
678.35	298.7000
678.67	296.4000
679.00	300.0000
679.32	296.9000
679.65	293.0000
679.98	293.1000
680.30	289.2000
680.63	288.2000
680.95	289.6000
681.28	291.3000
681.60	286.6000
681.93	283.9000
682.26	285.3000
682.58	287.0000
682.91	287.4000
683.23	287.4000
683.56	286.9000
683.88	295.2000
684.21	293.0000
684.53	300.9000
684.86	299.5000
685.18	294.7000
685.51	294.6000
685.83	288.8000
686.16	284.6000
686.48	283.4000
686.81	282.6000
687.13	280.4000
687.46	280.8000
687.78	279.3000
688.11	278.3000
688.43	273.9000
688.76	276.3000
689.08	277.5000
689.41	272.9000
689.73	271.5000
690.05	274.5000
690.38	276.1000
690.70	275.0000
691.03	274.3000
691.35	273.4000
691.68	268.3000
692.00	270.4000
692.32	273.5000
692.65	273.3000
692.97	267.1000
693.29	266.9000
693.62	264.2000
693.94	265.8000
694.27	264.5000
694.59	264.0000
694.91	261.9000
695.24	257.1000
695.56	257.1000
695.88	258.4000
696.21	260.7000
696.53	264.0000
696.85	263.7000
697.18	261.7000
697.50	261.3000
697.82	261.8000
698.15	257.7000
698.47	254.8000
698.79	256.0000
699.12	256.3000
699.44	249.2000
699.76	250.0000
700.09	247.9000
700.41	249.3000
700.73	245.7000
701.05	250.4000
701.38	251.2000
701.70	255.0000
702.02	254.1000
702.34	251.3000
702.67	250.5000
702.99	252.4000
703.31	249.0000
703.63	249.7000
703.96	244.9000
704.28	245.7000
704.60	242.9000
704.92	244.1000
705.25	241.7000
705.57	248.4000
705.89	248.5000
706.21	253.2000
706.53	254.4000
706.86	255.4000
707.18	251.0000
707.50	248.1000
707.82	245.4000
708.14	244.3000
708.46	247.8000
708.79	241.7000
709.11	244.9000
709.43	242.7000
709.75	241.9000
710.07	240.0000
710.39	242.4000
710.71	237.1000
711.04	235.2000
711.36	238.1000
711.68	235.1000
712.00	237.4000
712.32	238.7000
712.64	236.8000
712.96	238.6000
713.28	237.5000
713.60	238.4000
713.92	233.6000
714.24	236.7000
714.57	237.4000
714.89	238.1000
715.21	235.4000
715.53	230.6000
715.85	229.2000
716.17	229.1000
716.49	229.0000
716.81	224.8000
717.13	228.1000
717.45	229.0000
717.77	229.1000
718.09	229.1000
718.41	229.0000
718.73	229.4000
719.05	224.8000
719.37	222.7000
719.69	220.9000
720.01	225.1000
720.33	224.5000
720.65	223.0000
720.97	224.7000
721.29	223.8000
721.61	223.6000
721.93	222.9000
722.25	218.1000
722.57	216.7000
722.89	217.3000
723.21	216.1000
723.52	218.1000
723.84	212.6000
724.16	215.0000
724.48	218.7000
724.80	219.1000
725.12	220.0000
725.44	217.7000
725.76	214.0000
726.08	217.7000
726.40	215.5000
726.72	216.7000
727.03	217.1000
727.35	217.0000
727.67	213.2000
727.99	214.4000
728.31	212.4000
728.63	213.4000
728.95	214.0000
729.26	215.3000
729.58	217.4000
729.90	215.7000
730.22	216.9000
730.54	216.9000
730.86	215.2000
731.17	215.0000
731.49	212.8000
731.81	212.5000
732.13	213.0000
732.45	212.2000
732.76	212.4000
733.08	213.8000
733.40	215.9000
733.72	215.0000
734.03	212.6000
734.35	210.9000
734.67	212.0000
734.99	211.2000
735.30	210.3000
735.62	212.3000
735.94	211.7000
736.26	209.0000
736.57	211.0000
736.89	207.8000
737.21	204.8000
737.53	201.8000
737.84	200.5000
738.16	200.9000
738.48	201.5000
738.79	204.9000
739.11	205.0000
739.43	199.2000
739.74	196.7000
740.06	193.6000
740.38	196.6000
740.69	193.5000
741.01	190.7000
741.33	190.7000
741.64	192.4000
741.96	189.5000
742.28	192.1000
742.59	186.0000
742.91	186.9000
743.23	187.6000
743.54	188.1000
743.86	183.0000
744.17	184.4000
744.49	184.8000
744.81	182.7000
745.12	182.3000
745.44	180.1000
745.75	182.2000
746.07	179.2000
746.38	179.1000
746.70	183.2000
747.02	182.2000
747.33	177.6000
747.65	179.9000
747.96	176.6000
748.28	179.8000
748.59	179.5000
748.91	178.7000
749.22	178.0000
749.54	180.4000
749.85	180.2000
750.17	179.5000
750.48	182.4000
750.80	178.7000
751.11	178.1000
751.43	178.4000
751.74	177.9000
752.06	176.3000
752.37	174.8000
752.69	178.2000
753.00	176.3000
753.32	176.6000
753.63	176.9000
753.95	176.1000
754.26	175.9000
754.58	175.4000
754.89	177.7000
755.20	177.2000
755.52	178.7000
755.83	179.3000
756.15	180.4000
756.46	179.4000
756.78	180.4000
757.09	183.5000
757.40	180.8000
757.72	180.1000
758.03	180.3000
758.34	178.0000
758.66	178.7000
758.97	178.5000
759.29	179.2000
759.60	179.0000
759.91	177.9000
760.23	177.4000
760.54	177.5000
760.85	176.5000
761.17	173.2000
761.48	171.4000
761.79	170.4000
762.11	170.8000
762.42	170.8000
762.73	172.8000
763.05	169.8000
763.36	173.0000
763.67	174.5000
763.98	174.7000
764.30	174.5000
764.61	175.5000
764.92	172.0000
765.23	170.9000
765.55	167.9000
765.86	165.3000
766.17	165.5000
766.48	165.0000
766.80	162.0000
767.11	164.2000
767.42	162.5000
767.73	165.3000
768.05	167.4000
768.36	168.2000
768.67	166.8000
768.98	166.3000
769.29	166.3000
769.61	163.4000
769.92	162.4000
770.23	164.7000
770.54	164.0000
770.85	164.1000
771.17	163.8000
771.48	161.4000
771.79	161.7000
772.10	160.4000
772.41	158.1000
772.72	157.7000
773.03	157.0000
773.35	156.6000
773.66	156.7000
773.97	156.4000
774.28	154.9000
774.59	154.5000
774.90	152.8000
775.21	150.8000
775.52	152.6000
775.83	153.7000
776.15	148.9000
776.46	149.5000
776.77	149.2000
777.08	149.2000
777.39	149.3000
777.70	146.7000
778.01	150.6000
778.32	151.0000
778.63	150.7000
778.94	152.2000
779.25	148.5000
779.56	148.1000
779.87	147.3000
780.18	147.0000
780.49	148.7000
780.80	150.2000
781.11	148.4000
781.42	147.2000
781.73	148.9000
782.04	146.6000
782.35	145.5000
782.66	146.2000
782.97	145.6000
783.28	145.3000
783.59	143.3000
783.90	141.5000
784.21	142.5000
784.52	141.1000
784.83	141.3000
785.14	141.4000
785.45	142.3000
785.76	139.4000
786.06	139.5000
786.37	139.4000
786.68	138.5000
786.99	139.8000
787.30	140.4000
787.61	143.3000
787.92	140.2000
788.23	139.8000
788.54	140.6000
788.84	138.8000
789.15	138.6000
789.46	136.2000
789.77	133.8000
790.08	134.2000
790.39	136.4000
790.70	135.2000
791.00	135.9000
791.31	134.1000
791.62	132.4000
791.93	132.6000
792.24	131.3000
792.54	131.7000
792.85	131.2000
793.16	133.7000
793.47	136.1000
793.78	135.8000
794.08	134.7000
794.39	133.6000
794.70	132.7000
795.01	130.0000
795.31	128.9000
795.62	127.3000
795.93	127.2000
796.24	128.9000
796.54	128.7000
796.85	127.6000
797.16	126.6000
797.47	125.8000
797.77	124.7000
798.08	125.3000
798.39	125.3000
798.69	125.9000
799.00	124.5000
799.31	126.9000
799.62	124.3000
799.92	124.4000
800.23	122.3000
800.54	122.7000
800.84	122.5000
801.15	120.0000
801.46	120.4000
801.76	121.5000
802.07	121.6000
802.37	121.0000
802.68	119.1000
802.99	119.4000
803.29	118.8000
803.60	118.4000
803.91	116.5000
804.21	116.4000
804.52	117.0000
804.82	117.3000
805.13	118.4000
805.44	119.3000
805.74	119.7000
806.05	121.1000
806.35	118.8000
806.66	117.3000
806.96	117.2000
807.27	117.6000
807.57	118.5000
807.88	116.8000
808.19	115.7000
808.49	116.4000
808.80	114.7000
809.10	116.1000
809.41	114.9000
809.71	112.4000
810.02	113.6000
810.32	112.8000
810.63	113.9000
810.93	114.4000
811.24	112.6000
811.54	113.2000
811.85	111.9000
812.15	112.2000
812.45	111.1000
812.76	111.3000
813.06	113.1000
813.37	113.3000
813.67	112.8000
813.98	111.1000
814.28	112.0000
814.58	109.3000
814.89	111.1000
815.19	109.0000
815.50	109.6000
815.80	110.9000
816.11	109.9000
816.41	109.3000
816.71	109.7000
817.02	108.9000
817.32	109.2000
817.62	106.9000
817.93	105.9000
818.23	106.8000
818.53	107.7000
818.84	107.7000
819.14	107.9000
819.44	109.1000
819.75	108.6000
820.05	107.7000
820.35	107.9000
820.66	105.8000
820.96	105.8000
821.26	107.2000
821.57	106.2000
821.87	106.1000
822.17	104.2000
822.48	106.3000
822.78	105.3000
823.08	104.0000
823.38	105.5000
823.69	104.4000
823.99	104.0000
824.29	103.9000
824.59	102.8000
824.90	104.4000
825.20	102.9000
825.50	101.9000
825.80	102.0000
826.10	103.1000
826.41	102.7000
826.71	102.6000
827.01	103.5000
827.31	103.8000
827.61	105.5000
827.92	103.8000
828.22	103.1000
828.52	101.0000
828.82	100.8000
829.12	101.8000
829.42	102.4000
829.73	103.7000
830.03	101.3000
830.33	99.5000
830.63	101.7000
830.93	99.9000
831.23	97.7000
831.53	98.8000
831.83	98.4000
832.14	99.0000
832.44	100.8000
832.74	98.8000
833.04	98.9000
833.34	100.1000
833.64	98.1000
833.94	98.5000
834.24	97.6000
834.54	97.6000
834.84	98.4000
835.14	98.1000
835.44	97.9000
835.74	98.2000
836.04	98.9000
836.34	98.4000
836.64	96.7000
836.95	94.6000
837.25	97.5000
837.55	96.8000
837.85	96.3000
838.15	96.3000
838.45	95.9000
838.74	95.4000
839.04	95.6000
839.34	94.3000
839.64	96.4000
839.94	94.5000
840.24	94.5000
840.54	97.5000
840.84	94.0000
841.14	94.5000
841.44	94.4000
841.74	95.7000
842.04	94.3000
842.34	94.6000
842.64	91.9000
842.94	92.3000
843.24	93.3000
843.53	94.8000
843.83	94.7000
844.13	95.2000
844.43	93.7000
844.73	92.3000
845.03	93.6000
845.33	91.5000
845.63	90.6000
845.92	90.3000
846.22	92.1000
846.52	93.4000
846.82	92.7000
847.12	91.5000
847.42	91.6000
847.71	93.1000
848.01	90.9000
848.31	90.1000
848.61	92.7000
848.91	90.8000
849.20	91.9000
849.50	91.2000
849.80	91.1000
850.10	91.3000
850.39	91.4000
850.69	89.2000
850.99	89.4000
851.29	87.1000
851.59	88.9000
851.88	90.1000
852.18	90.5000
852.48	91.8000
852.77	91.4000
853.07	90.3000
853.37	90.4000
853.67	90.7000
853.96	89.4000
854.26	88.7000
854.56	90.4000
854.85	89.4000
855.15	90.6000
855.45	89.3000
855.74	88.5000
856.04	88.3000
856.34	89.0000
856.63	89.1000
856.93	88.4000
857.23	89.6000
857.52	89.5000
857.82	89.2000
858.11	88.9000
858.41	89.1000
858.71	88.2000
859.00	86.8000
859.30	87.1000
859.59	84.9000
859.89	85.8000
860.19	86.6000
860.48	87.1000
860.78	86.2000
861.07	87.9000
861.37	87.5000
861.66	87.1000
861.96	86.9000
862.26	85.6000
862.55	86.3000
862.85	86.6000
863.14	87.4000
863.44	87.8000
863.73	86.2000
864.03	86.3000
864.32	86.5000
864.62	85.4000
864.91	85.9000
865.21	86.4000
865.50	85.0000
865.80	85.9000
866.09	85.7000
866.39	84.7000
866.68	85.2000
866.97	84.6000
867.27	84.0000
867.56	84.3000
867.86	82.9000
868.15	85.0000
868.45	85.6000
868.74	84.3000
869.03	84.8000
869.33	83.5000
869.62	83.8000
869.92	83.7000
870.21	82.6000
870.50	83.1000
870.80	82.8000
871.09	84.5000
871.39	83.0000
871.68	83.5000
871.97	83.2000
872.27	82.6000
872.56	82.5000
872.85	83.8000
873.15	82.6000
873.44	83.3000
873.73	82.3000
874.03	83.5000
874.32	82.9000
874.61	81.6000
874.90	81.2000
875.20	83.1000
875.49	80.9000
875.78	80.2000