OOIBase32 Version 1.0.0.8 Data File
++++++++++++++++++++++++++++++++++++
Date: Wednesday, January 16, 1980, 02:38:16
User: Valued Ocean Optics Customer
Spectrometer Serial Number: Unknown
Spectrometer Channel: Master
Integration Time (msec): 3
Spectra Averaged: 10
Boxcar Smoothing: 0
Correct for Electrical Dark: Disabled
Time Normalized: Disabled
Dual-beam Reference: Disabled
Reference Channel: Master
>>>>>Begin Spectral Data<<<<<
179.00	0.0000
179.38	0.0000
179.75	70.1000
180.13	72.1000
180.51	71.4000
180.88	71.5000
181.26	69.7000
181.64	71.3000
182.02	73.0000
182.39	72.8000
182.77	72.8000
183.15	72.1000
183.52	71.7000
183.90	73.4000
184.28	70.6000
184.65	69.6000
185.03	71.5000
185.41	70.5000
185.78	71.0000
186.16	72.0000
186.53	70.9000
186.91	72.9000
187.29	70.1000
187.66	71.5000
188.04	70.3000
188.42	71.5000
188.79	72.0000
189.17	72.9000
189.55	73.2000
189.92	71.9000
190.30	72.3000
190.67	70.4000
191.05	72.3000
191.43	73.5000
191.80	72.3000
192.18	73.3000
192.56	72.6000
192.93	74.1000
193.31	72.3000
193.68	73.4000
194.06	72.0000
194.44	72.4000
194.81	72.4000
195.19	73.6000
195.56	71.1000
195.94	72.6000
196.32	72.3000
196.69	72.1000
197.07	73.3000
197.44	73.1000
197.82	70.0000
198.19	72.9000
198.57	71.6000
198.95	72.8000
199.32	73.7000
199.70	71.7000
200.07	72.1000
200.45	72.5000
200.82	73.5000
201.20	73.0000
201.57	72.7000
201.95	72.6000
202.33	71.7000
202.70	72.6000
203.08	73.9000
203.45	74.1000
203.83	72.1000
204.20	73.0000
204.58	73.5000
204.95	73.5000
205.33	72.7000
205.70	73.7000
206.08	72.0000
206.45	73.1000
206.83	72.7000
207.20	73.7000
207.58	74.5000
207.95	74.5000
208.33	73.1000
208.70	73.8000
209.08	71.8000
209.45	72.8000
209.83	71.7000
210.20	74.9000
210.58	72.8000
210.95	72.6000
211.33	74.2000
211.70	72.9000
212.08	73.3000
212.45	73.5000
212.83	74.8000
213.20	72.7000
213.58	73.9000
213.95	73.4000
214.33	73.5000
214.70	74.3000
215.07	72.9000
215.45	73.2000
215.82	71.4000
216.20	72.4000
216.57	72.5000
216.95	72.7000
217.32	73.0000
217.70	72.4000
218.07	73.1000
218.44	73.1000
218.82	72.7000
219.19	74.9000
219.57	73.0000
219.94	73.0000
220.32	73.1000
220.69	73.8000
221.06	73.2000
221.44	72.3000
221.81	75.0000
222.19	74.5000
222.56	74.1000
222.93	73.0000
223.31	73.1000
223.68	74.3000
224.06	73.2000
224.43	73.9000
224.80	74.1000
225.18	74.2000
225.55	74.5000
225.92	74.6000
226.30	73.4000
226.67	74.2000
227.05	74.7000
227.42	74.8000
227.79	75.0000
228.17	74.7000
228.54	74.3000
228.91	74.4000
229.29	73.6000
229.66	73.6000
230.03	75.0000
230.41	75.8000
230.78	75.7000
231.15	75.7000
231.53	74.4000
231.90	75.0000
232.27	75.7000
232.65	75.6000
233.02	72.7000
233.39	74.1000
233.77	74.1000
234.14	73.7000
234.51	74.7000
234.89	74.8000
235.26	74.8000
235.63	72.1000
236.01	73.1000
236.38	74.7000
236.75	72.8000
237.12	73.4000
237.50	74.5000
237.87	75.8000
238.24	75.1000
238.62	74.1000
238.99	74.1000
239.36	74.9000
239.73	73.3000
240.11	73.9000
240.48	73.2000
240.85	73.8000
241.23	74.0000
241.60	73.5000
241.97	74.6000
242.34	74.2000
242.72	73.2000
243.09	74.1000
243.46	73.3000
243.83	72.4000
244.21	72.9000
244.58	73.2000
244.95	73.8000
245.32	73.5000
245.70	73.4000
246.07	74.6000
246.44	74.5000
246.81	74.9000
247.18	73.3000
247.56	73.7000
247.93	72.0000
248.30	73.1000
248.67	74.0000
249.04	72.4000
249.42	73.2000
249.79	72.8000
250.16	72.9000
250.53	73.6000
250.90	74.0000
251.28	73.5000
251.65	74.0000
252.02	74.3000
252.39	74.7000
252.76	75.3000
253.14	74.3000
253.51	74.8000
253.88	72.7000
254.25	73.3000
254.62	72.5000
254.99	73.6000
255.37	75.5000
255.74	74.5000
256.11	75.1000
256.48	73.5000
256.85	75.4000
257.22	74.9000
257.59	73.4000
257.97	74.5000
258.34	75.1000
258.71	76.9000
259.08	76.1000
259.45	76.6000
259.82	76.4000
260.19	77.0000
260.56	76.1000
260.94	77.7000
261.31	78.3000
261.68	78.2000
262.05	79.4000
262.42	80.4000
262.79	80.9000
263.16	82.0000
263.53	81.6000
263.90	81.4000
264.28	81.8000
264.65	82.7000
265.02	83.5000
265.39	83.4000
265.76	85.2000
266.13	87.4000
266.50	88.2000
266.87	88.4000
267.24	86.7000
267.61	85.4000
267.98	87.2000
268.35	91.2000
268.72	90.0000
269.09	90.0000
269.46	92.1000
269.84	91.2000
270.21	91.5000
270.58	91.3000
270.95	92.6000
271.32	94.5000
271.69	95.2000
272.06	96.0000
272.43	94.3000
272.80	93.2000
273.17	96.2000
273.54	96.3000
273.91	95.5000
274.28	96.2000
274.65	96.8000
275.02	96.8000
275.39	96.6000
275.76	95.9000
276.13	95.7000
276.50	98.8000
276.87	99.6000
277.24	100.0000
277.61	100.7000
277.98	99.9000
278.35	98.0000
278.72	100.5000
279.09	98.6000
279.46	100.9000
279.83	101.3000
280.20	100.4000
280.57	101.8000
280.94	100.7000
281.31	102.3000
281.67	103.0000
282.04	104.5000
282.41	105.8000
282.78	103.4000
283.15	105.9000
283.52	108.1000
283.89	108.3000
284.26	105.3000
284.63	106.2000
285.00	108.5000
285.37	110.6000
285.74	110.8000
286.11	111.3000
286.48	111.7000
286.85	113.5000
287.21	111.5000
287.58	108.1000
287.95	110.4000
288.32	112.8000
288.69	112.8000
289.06	114.4000
289.43	114.2000
289.80	116.1000
290.17	113.2000
290.54	116.1000
290.90	116.1000
291.27	118.5000
291.64	117.7000
292.01	115.6000
292.38	118.6000
292.75	116.8000
293.12	117.2000
293.48	118.7000
293.85	121.0000
294.22	119.4000
294.59	120.8000
294.96	119.4000
295.33	121.3000
295.70	120.6000
296.06	120.8000
296.43	120.2000
296.80	118.1000
297.17	121.3000
297.54	121.7000
297.91	120.2000
298.27	123.8000
298.64	127.6000
299.01	124.8000
299.38	126.0000
299.75	127.5000
300.11	126.5000
300.48	123.7000
300.85	128.6000
301.22	127.9000
301.59	127.3000
301.95	127.0000
302.32	126.5000
302.69	125.8000
303.06	127.6000
303.43	130.5000
303.79	131.3000
304.16	134.1000
304.53	131.9000
304.90	133.1000
305.26	134.4000
305.63	131.6000
306.00	132.9000
306.37	134.1000
306.73	135.3000
307.10	136.0000
307.47	136.3000
307.84	137.7000
308.20	136.2000
308.57	139.5000
308.94	136.1000
309.31	136.7000
309.67	140.3000
310.04	141.2000
310.41	139.7000
310.77	136.3000
311.14	136.0000
311.51	136.7000
311.88	140.5000
312.24	139.2000
312.61	137.6000
312.98	139.5000
313.34	141.2000
313.71	145.0000
314.08	144.7000
314.44	143.3000
314.81	141.9000
315.18	141.4000
315.55	141.9000
315.91	143.6000
316.28	145.0000
316.65	143.6000
317.01	147.9000
317.38	147.3000
317.75	143.9000
318.11	144.8000
318.48	144.6000
318.84	147.2000
319.21	146.4000
319.58	150.7000
319.94	148.5000
320.31	151.6000
320.68	151.8000
321.04	153.1000
321.41	155.0000
321.78	150.5000
322.14	152.6000
322.51	153.0000
322.87	153.5000
323.24	153.6000
323.61	153.5000
323.97	152.5000
324.34	154.8000
324.70	154.9000
325.07	154.8000
325.44	153.9000
325.80	157.7000
326.17	159.8000
326.53	160.2000
326.90	158.4000
327.27	160.4000
327.63	161.0000
328.00	162.1000
328.36	160.3000
328.73	165.1000
329.09	162.5000
329.46	163.6000
329.83	163.6000
330.19	166.2000
330.56	164.9000
330.92	166.8000
331.29	164.7000
331.65	166.6000
332.02	163.4000
332.38	167.0000
332.75	165.7000
333.11	169.2000
333.48	172.2000
333.84	175.3000
334.21	174.1000
334.58	171.5000
334.94	168.8000
335.31	173.2000
335.67	172.2000
336.04	176.0000
336.40	171.6000
336.77	173.7000
337.13	172.2000
337.50	176.6000
337.86	176.7000
338.22	180.5000
338.59	180.1000
338.95	177.7000
339.32	179.1000
339.68	179.3000
340.05	179.2000
340.41	181.2000
340.78	180.5000
341.14	181.0000
341.51	181.6000
341.87	185.0000
342.24	186.1000
342.60	188.8000
342.96	188.8000
343.33	190.2000
343.69	190.8000
344.06	195.8000
344.42	194.6000
344.79	194.2000
345.15	200.2000
345.51	198.9000
345.88	202.3000
346.24	204.4000
346.61	203.1000
346.97	207.2000
347.34	204.1000
347.70	210.5000
348.06	206.8000
348.43	214.8000
348.79	213.1000
349.16	214.9000
349.52	215.6000
349.88	218.1000
350.25	219.6000
350.61	215.3000
350.97	220.7000
351.34	219.3000
351.70	222.5000
352.07	221.2000
352.43	221.8000
352.79	221.8000
353.16	227.7000
353.52	226.4000
353.88	226.5000
354.25	230.4000
354.61	231.9000
354.97	230.5000
355.34	236.8000
355.70	234.4000
356.06	235.2000
356.43	243.6000
356.79	237.1000
357.15	244.9000
357.52	246.0000
357.88	241.9000
358.24	246.1000
358.60	246.8000
358.97	248.6000
359.33	251.3000
359.69	251.3000
360.06	256.8000
360.42	261.3000
360.78	264.0000
361.14	264.3000
361.51	263.3000
361.87	270.5000
362.23	277.9000
362.60	277.7000
362.96	276.1000
363.32	277.9000
363.68	284.0000
364.05	285.1000
364.41	288.1000
364.77	297.2000
365.13	290.0000
365.50	293.1000
365.86	302.3000
366.22	310.9000
366.58	302.7000
366.95	310.9000
367.31	307.9000
367.67	321.1000
368.03	310.4000
368.39	322.6000
368.76	322.8000
369.12	309.3000
369.48	316.1000
369.84	319.7000
370.20	333.3000
370.57	325.1000
370.93	330.6000
371.29	327.0000
371.65	334.9000
372.01	336.8000
372.38	332.7000
372.74	342.9000
373.10	327.3000
373.46	345.1000
373.82	344.7000
374.18	343.0000
374.55	344.2000
374.91	355.2000
375.27	363.0000
375.63	354.4000
375.99	350.6000
376.35	362.0000
376.71	354.4000
377.08	366.3000
377.44	376.0000
377.80	397.4000
378.16	384.4000
378.52	396.4000
378.88	400.6000
379.24	395.7000
379.60	412.3000
379.97	423.4000
380.33	418.8000
380.69	405.6000
381.05	416.3000
381.41	438.6000
381.77	422.2000
382.13	428.0000
382.49	423.2000
382.85	418.4000
383.21	440.1000
383.57	406.6000
383.94	448.9000
384.30	446.2000
384.66	438.6000
385.02	416.3000
385.38	439.7000
385.74	430.2000
386.10	443.1000
386.46	475.3000
386.82	460.5000
387.18	478.0000
387.54	473.5000
387.90	462.8000
388.26	479.5000
388.62	476.0000
388.98	452.4000
389.34	467.0000
389.70	470.3000
390.06	422.5000
390.42	432.3000
390.78	488.7000
391.14	529.5000
391.50	508.9000
391.86	537.0000
392.22	550.4000
392.58	528.8000
392.94	461.3000
393.30	483.8000
393.66	501.5000
394.02	509.1000
394.38	445.5000
394.74	480.7000
395.10	482.4000
395.46	505.2000
395.82	503.4000
396.18	481.9000
396.54	547.9000
396.90	562.6000
397.26	545.3000
397.62	538.3000
397.98	587.0000
398.34	510.9000
398.70	521.7000
399.05	472.0000
399.41	472.3000
399.77	494.2000
400.13	518.0000
400.49	530.1000
400.85	527.0000
401.21	490.9000
401.57	548.6000
401.93	505.9000
402.29	497.3000
402.65	508.5000
403.00	531.7000
403.36	532.4000
403.72	524.7000
404.08	598.3000
404.44	542.7000
404.80	556.0000
405.16	558.2000
405.52	554.5000
405.87	566.6000
406.23	552.2000
406.59	490.6000
406.95	525.0000
407.31	535.8000
407.67	542.2000
408.03	546.1000
408.38	556.2000
408.74	602.6000
409.10	596.8000
409.46	545.6000
409.82	561.4000
410.17	550.0000
410.53	529.0000
410.89	553.2000
411.25	497.9000
411.61	528.2000
411.97	574.3000
412.32	572.5000
412.68	581.9000
413.04	540.5000
413.40	487.8000
413.75	521.5000
414.11	523.4000
414.47	512.2000
414.83	585.8000
415.19	536.4000
415.54	498.9000
415.90	565.0000
416.26	545.1000
416.62	558.1000
416.97	492.8000
417.33	569.6000
417.69	566.2000
418.05	546.8000
418.40	513.5000
418.76	517.3000
419.12	575.1000
419.48	589.9000
419.83	634.3000
420.19	564.5000
420.55	579.5000
420.90	676.6000
421.26	630.5000
421.62	561.7000
421.98	618.6000
422.33	650.5000
422.69	671.3000
423.05	635.2000
423.40	544.7000
423.76	530.0000
424.12	595.3000
424.47	594.4000
424.83	555.7000
425.19	553.7000
425.54	558.3000
425.90	601.0000
426.26	623.1000
426.61	646.0000
426.97	501.0000
427.33	606.8000
427.68	583.7000
428.04	673.4000
428.40	685.4000
428.75	722.7000
429.11	634.6000
429.47	737.0000
429.82	721.5000
430.18	659.8000
430.53	628.6000
430.89	625.6000
431.25	601.0000
431.60	622.2000
431.96	603.2000
432.31	596.3000
432.67	655.5000
433.03	699.5000
433.38	631.4000
433.74	643.8000
434.09	646.3000
434.45	630.9000
434.81	591.5000
435.16	647.3000
435.52	588.9000
435.87	577.1000
436.23	573.4000
436.58	573.5000
436.94	614.9000
437.30	651.3000
437.65	664.1000
438.01	664.3000
438.36	609.7000
438.72	594.5000
439.07	571.0000
439.43	605.0000
439.78	665.3000
440.14	742.8000
440.49	649.2000
440.85	669.6000
441.20	701.3000
441.56	658.8000
441.91	716.9000
442.27	649.0000
442.62	660.3000
442.98	687.3000
443.33	661.5000
443.69	680.0000
444.04	650.5000
444.40	601.3000
444.75	678.9000
445.11	721.4000
445.46	730.0000
445.82	714.0000
446.17	661.4000
446.53	694.2000
446.88	764.9000
447.23	628.4000
447.59	633.9000
447.94	629.9000
448.30	650.1000
448.65	639.2000
449.01	684.0000
449.36	681.2000
449.72	715.2000
450.07	741.2000
450.42	695.9000
450.78	650.6000
451.13	700.5000
451.49	651.4000
451.84	641.9000
452.19	611.3000
452.55	626.2000
452.90	647.6000
453.26	708.0000
453.61	726.9000
453.96	602.0000
454.32	685.4000
454.67	657.8000
455.02	588.4000
455.38	635.7000
455.73	636.7000
456.09	708.3000
456.44	709.1000
456.79	709.8000
457.15	673.4000
457.50	665.2000
457.85	666.3000
458.21	682.1000
458.56	680.3000
458.91	663.2000
459.27	611.7000
459.62	648.6000
459.97	667.5000
460.32	677.0000
460.68	639.1000
461.03	605.5000
461.38	621.0000
461.74	691.1000
462.09	666.0000
462.44	642.0000
462.80	672.0000
463.15	670.8000
463.50	665.4000
463.85	706.4000
464.21	727.5000
464.56	755.0000
464.91	672.3000
465.26	675.9000
465.62	686.0000
465.97	719.5000
466.32	693.3000
466.67	693.9000
467.03	679.5000
467.38	685.1000
467.73	682.1000
468.08	698.9000
468.44	699.6000
468.79	670.2000
469.14	637.4000
469.49	667.3000
469.85	683.5000
470.20	737.6000
470.55	741.8000
470.90	736.0000
471.25	680.1000
471.61	734.9000
471.96	739.2000
472.31	778.3000
472.66	779.3000
473.01	793.8000
473.36	807.7000
473.72	822.0000
474.07	835.9000
474.42	835.4000
474.77	845.3000
475.12	852.2000
475.47	866.4000
475.83	865.9000
476.18	845.0000
476.53	836.7000
476.88	902.1000
477.23	892.3000
477.58	879.2000
477.93	880.3000
478.28	884.5000
478.64	909.8000
478.99	936.7000
479.34	950.1000
479.69	976.0000
480.04	981.9000
480.39	984.3000
480.74	962.8000
481.09	1027.3000
481.44	1013.2000
481.79	999.8000
482.15	1005.0000
482.50	1025.5000
482.85	1033.6000
483.20	1090.6000
483.55	1108.6000
483.90	1152.3000
484.25	1372.7000
484.60	1536.1000
484.95	1663.8000
485.30	1583.4000
485.65	1410.2000
486.00	1330.6000
486.35	1203.9000
486.70	1138.5000
487.05	1149.9000
487.40	1123.4000
487.75	1113.4000
488.10	1116.4000
488.45	1100.9000
488.80	1105.5000
489.15	1127.9000
489.50	1125.4000
489.85	1127.3000
490.20	1120.4000
490.55	1127.1000
490.90	1124.4000
491.25	1127.7000
491.60	1115.3000
491.95	1105.8000
492.30	1126.0000
492.65	1142.2000
493.00	1140.6000
493.35	1133.7000
493.70	1135.5000
494.05	1130.9000
494.40	1146.4000
494.75	1170.8000
495.10	1185.0000
495.45	1200.6000
495.80	1190.6000
496.15	1172.8000
496.50	1141.7000
496.84	1135.4000
497.19	1141.3000
497.54	1156.5000
497.89	1174.4000
498.24	1168.8000
498.59	1179.9000
498.94	1161.8000
499.29	1159.6000
499.64	1159.6000
499.99	1180.4000
500.33	1190.3000
500.68	1197.9000
501.03	1196.5000
501.38	1196.5000
501.73	1211.7000
502.08	1199.1000
502.43	1205.0000
502.77	1193.9000
503.12	1183.6000
503.47	1180.5000
503.82	1188.6000
504.17	1181.8000
504.52	1195.5000
504.86	1189.9000
505.21	1206.6000
505.56	1189.7000
505.91	1179.1000
506.26	1174.5000
506.61	1189.7000
506.95	1186.4000
507.30	1182.4000
507.65	1189.2000
508.00	1178.8000
508.35	1174.0000
508.69	1181.9000
509.04	1185.5000
509.39	1180.4000
509.74	1187.4000
510.08	1193.9000
510.43	1200.8000
510.78	1198.4000
511.13	1199.9000
511.47	1202.6000
511.82	1216.4000
512.17	1202.7000
512.52	1201.4000
512.86	1207.7000
513.21	1210.9000
513.56	1193.5000
513.91	1198.5000
514.25	1191.9000
514.60	1189.6000
514.95	1203.3000
515.30	1205.2000
515.64	1207.3000
515.99	1224.1000
516.34	1210.9000
516.68	1210.3000
517.03	1213.9000
517.38	1209.6000
517.72	1242.7000
518.07	1236.0000
518.42	1236.9000
518.76	1242.9000
519.11	1221.1000
519.46	1217.8000
519.80	1206.6000
520.15	1212.2000
520.50	1219.8000
520.84	1213.9000
521.19	1210.3000
521.54	1219.7000
521.88	1204.2000
522.23	1221.8000
522.58	1225.0000
522.92	1227.6000
523.27	1236.6000
523.61	1234.2000
523.96	1226.2000
524.31	1246.5000
524.65	1240.7000
525.00	1248.2000
525.34	1219.4000
525.69	1229.3000
526.04	1243.7000
526.38	1243.6000
526.73	1235.3000
527.07	1252.6000
527.42	1251.4000
527.76	1266.9000
528.11	1275.2000
528.46	1260.4000
528.80	1253.8000
529.15	1242.3000
529.49	1230.8000
529.84	1247.0000
530.18	1241.6000
530.53	1252.2000
530.87	1252.5000
531.22	1245.3000
531.56	1245.8000
531.91	1271.0000
532.25	1271.9000
532.60	1285.2000
532.94	1279.2000
533.29	1279.3000
533.63	1278.8000
533.98	1278.0000
534.32	1291.4000
534.67	1303.6000
535.01	1293.1000
535.36	1271.1000
535.70	1277.6000
536.05	1268.6000
536.39	1288.2000
536.74	1282.2000
537.08	1274.8000
537.43	1281.6000
537.77	1289.5000
538.12	1300.0000
538.46	1298.9000
538.80	1290.9000
539.15	1275.0000
539.49	1289.3000
539.84	1310.7000
540.18	1298.0000
540.53	1285.9000
540.87	1292.7000
541.21	1316.5000
541.56	1306.9000
541.90	1302.6000
542.25	1295.5000
542.59	1292.9000
542.93	1308.1000
543.28	1307.9000
543.62	1318.8000
543.97	1321.2000
544.31	1306.1000
544.65	1304.0000
545.00	1303.3000
545.34	1306.6000
545.68	1304.6000
546.03	1300.2000
546.37	1333.3000
546.71	1354.4000
547.06	1358.0000
547.40	1350.9000
547.74	1346.7000
548.09	1337.1000
548.43	1317.8000
548.77	1313.8000
549.12	1311.7000
549.46	1300.3000
549.80	1309.8000
550.15	1321.2000
550.49	1321.5000
550.83	1333.2000
551.17	1350.5000
551.52	1339.3000
551.86	1338.5000
552.20	1333.7000
552.55	1348.7000
552.89	1338.8000
553.23	1325.9000
553.57	1337.6000
553.92	1338.0000
554.26	1356.1000
554.60	1353.3000
554.94	1358.7000
555.29	1361.8000
555.63	1362.3000
555.97	1354.7000
556.31	1355.0000
556.66	1348.5000
557.00	1331.5000
557.34	1331.4000
557.68	1335.3000
558.02	1337.5000
558.37	1343.7000
558.71	1358.6000
559.05	1369.0000
559.39	1400.4000
559.73	1407.0000
560.08	1403.1000
560.42	1410.7000
560.76	1391.7000
561.10	1377.9000
561.44	1381.4000
561.78	1386.2000
562.13	1396.9000
562.47	1379.0000
562.81	1398.4000
563.15	1396.7000
563.49	1400.4000
563.83	1396.8000
564.17	1394.3000
564.52	1385.7000
564.86	1383.1000
565.20	1382.8000
565.54	1384.4000
565.88	1401.4000
566.22	1423.2000
566.56	1425.4000
566.90	1453.3000
567.24	1473.9000
567.59	1488.5000
567.93	1520.9000
568.27	1560.6000
568.61	1601.4000
568.95	1602.7000
569.29	1613.5000
569.63	1659.7000
569.97	1686.3000
570.31	1702.6000
570.65	1731.2000
570.99	1728.0000
571.33	1716.5000
571.67	1691.0000
572.01	1728.8000
572.35	1783.5000
572.69	1827.3000
573.03	1833.7000
573.37	1862.0000
573.71	1872.5000
574.05	1844.5000
574.39	1805.0000
574.73	1793.9000
575.07	1780.0000
575.41	1797.2000
575.75	1802.0000
576.09	1880.6000
576.43	1956.2000
576.77	2021.4000
577.11	2009.3000
577.45	1949.0000
577.79	1879.9000
578.13	1872.5000
578.47	1841.0000
578.81	1848.3000
579.15	1829.7000
579.49	1859.3000
579.83	1985.4000
580.17	2107.3999
580.51	2215.1001
580.85	2220.2000
581.19	2124.3999
581.53	2022.9000
581.87	1900.8000
582.20	1788.5000
582.54	1717.2000
582.88	1704.1000
583.22	1735.5000
583.56	1807.0000
583.90	1890.7000
584.24	1943.6000
584.58	1903.8000
584.92	1858.6000
585.25	1805.0000
585.59	1770.8000
585.93	1787.5000
586.27	1826.3000
586.61	1799.3000
586.95	1801.2000
587.29	1773.0000
587.62	1724.7000
587.96	1676.2000
588.30	1634.8000
588.64	1612.9000
588.98	1606.8000
589.31	1582.7000
589.65	1546.9000
589.99	1529.2000
590.33	1540.3000
590.67	1539.1000
591.01	1571.4000
591.34	1651.5000
591.68	1732.0000
592.02	1785.6000
592.36	1783.2000
592.69	1740.1000
593.03	1701.5000
593.37	1679.1000
593.71	1690.6000
594.04	1703.1000
594.38	1681.3000
594.72	1648.5000
595.06	1604.5000
595.39	1593.1000
595.73	1572.6000
596.07	1594.9000
596.41	1589.8000
596.74	1575.0000
597.08	1577.1000
597.42	1623.7000
597.76	1650.5000
598.09	1679.2000
598.43	1661.7000
598.77	1681.5000
599.10	1696.1000
599.44	1691.6000
599.78	1680.6000
600.11	1672.4000
600.45	1663.4000
600.79	1629.2000
601.12	1622.4000
601.46	1620.1000
601.80	1654.8000
602.13	1659.3000
602.47	1684.3000
602.81	1654.3000
603.14	1619.2000
603.48	1601.7000
603.82	1597.3000
604.15	1582.6000
604.49	1608.1000
604.82	1604.2000
605.16	1587.7000
605.50	1567.2000
605.83	1598.0000
606.17	1593.0000
606.50	1595.9000
606.84	1570.3000
607.18	1560.2000
607.51	1537.9000
607.85	1533.0000
608.18	1512.5000
608.52	1535.9000
608.86	1542.1000
609.19	1559.4000
609.53	1529.2000
609.86	1517.6000
610.20	1530.1000
610.53	1513.3000
610.87	1490.1000
611.20	1511.0000
611.54	1474.1000
611.87	1477.2000
612.21	1483.7000
612.54	1470.3000
612.88	1470.0000
613.21	1485.1000
613.55	1511.6000
613.88	1504.9000
614.22	1527.0000
614.55	1501.2000
614.89	1491.3000
615.22	1457.7000
615.56	1434.1000
615.89	1425.5000
616.23	1419.8000
616.56	1400.2000
616.90	1403.4000
617.23	1374.6000
617.57	1381.6000
617.90	1354.7000
618.24	1363.2000
618.57	1367.1000
618.90	1372.7000
619.24	1363.3000
619.57	1347.8000
619.91	1331.8000
620.24	1291.8000
620.58	1318.1000
620.91	1339.1000
621.24	1338.5000
621.58	1361.6000
621.91	1357.1000
622.25	1357.8000
622.58	1348.7000
622.91	1357.5000
623.25	1326.0000
623.58	1326.5000
623.91	1317.4000
624.25	1300.2000
624.58	1290.6000
624.92	1283.0000
625.25	1282.5000
625.58	1267.1000
625.92	1279.1000
626.25	1267.5000
626.58	1267.3000
626.92	1245.5000
627.25	1252.2000
627.58	1232.6000
627.91	1241.3000
628.25	1245.5000
628.58	1245.1000
628.91	1233.1000
629.25	1230.7000
629.58	1217.7000
629.91	1218.8000
630.25	1205.5000
630.58	1183.5000
630.91	1174.5000
631.24	1176.5000
631.58	1169.1000
631.91	1167.2000
632.24	1154.2000
632.57	1151.0000
632.91	1153.2000
633.24	1145.6000
633.57	1147.9000
633.90	1138.8000
634.24	1136.5000
634.57	1136.2000
634.90	1151.9000
635.23	1148.3000
635.56	1151.4000
635.90	1155.3000
636.23	1152.9000
636.56	1150.4000
636.89	1154.5000
637.22	1152.5000
637.56	1150.0000
637.89	1128.3000
638.22	1132.2000
638.55	1124.8000
638.88	1106.5000
639.21	1124.0000
639.55	1109.4000
639.88	1105.9000
640.21	1105.5000
640.54	1094.2000
640.87	1091.3000
641.20	1090.5000
641.53	1095.2000
641.87	1088.2000
642.20	1092.0000
642.53	1094.9000
642.86	1101.4000
643.19	1092.2000
643.52	1085.6000
643.85	1085.2000
644.18	1086.1000
644.51	1075.1000
644.84	1073.5000
645.18	1068.5000
645.51	1066.8000
645.84	1057.7000
646.17	1051.7000
646.50	1065.2000
646.83	1075.7000
647.16	1072.7000
647.49	1082.2000
647.82	1093.8000
648.15	1100.1000
648.48	1091.4000
648.81	1084.2000
649.14	1068.1000
649.47	1071.1000
649.80	1066.0000
650.13	1056.9000
650.46	1066.6000
650.79	1064.4000
651.12	1077.4000
651.45	1073.6000
651.78	1072.4000
652.11	1080.2000
652.44	1078.0000
652.77	1073.7000
653.10	1070.7000
653.43	1072.6000
653.76	1080.7000
654.09	1141.3000
654.42	1939.0000
654.75	3025.3999
655.08	3624.3000
655.41	3723.3000
655.74	2974.7000
656.07	2444.2000
656.39	2081.8999
656.72	1770.2000
657.05	1461.9000
657.38	1255.0000
657.71	1131.6000
658.04	1075.0000
658.37	1059.1000
658.70	1035.2000
659.03	1013.9000
659.36	1019.6000
659.68	1019.5000
660.01	1010.9000
660.34	1005.1000
660.67	1003.6000
661.00	1009.7000
661.33	993.7000
661.66	995.3000
661.98	1005.6000
662.31	1006.3000
662.64	998.5000
662.97	1014.0000
663.30	999.6000
663.63	999.9000
663.95	1005.6000
664.28	1016.4000
664.61	1009.7000
664.94	1009.4000
665.27	1005.9000
665.59	1000.2000
665.92	999.8000
666.25	993.8000
666.58	983.1000
666.91	1002.5000
667.23	982.0000
667.56	971.2000
667.89	976.6000
668.22	978.5000
668.54	983.7000
668.87	987.9000
669.20	977.5000
669.53	985.5000
669.85	981.3000
670.18	983.0000
670.51	981.2000
670.83	995.5000
671.16	1001.2000
671.49	1004.1000
671.82	998.3000
672.14	988.1000
672.47	974.4000
672.80	959.1000
673.12	963.1000
673.45	964.6000
673.78	943.8000
674.10	953.4000
674.43	942.9000
674.76	939.4000
675.08	940.9000
675.41	934.3000
675.74	931.6000
676.06	933.9000
676.39	928.3000
676.72	933.0000
677.04	940.5000
677.37	948.3000
677.69	934.1000
678.02	935.2000
678.35	942.1000
678.67	935.3000
679.00	949.1000
679.32	941.4000
679.65	923.8000
679.98	930.8000
680.30	927.2000
680.63	928.2000
680.95	926.7000
681.28	928.0000
681.60	903.5000
681.93	903.7000
682.26	912.0000
682.58	901.5000
682.91	909.2000
683.23	911.4000
683.56	915.4000
683.88	934.5000
684.21	930.5000
684.53	954.2000
684.86	949.5000
685.18	944.4000
685.51	937.6000
685.83	926.6000
686.16	911.8000
686.48	905.8000
686.81	907.5000
687.13	899.2000
687.46	894.3000
687.78	890.0000
688.11	872.0000
688.43	866.5000
688.76	877.4000
689.08	878.2000
689.41	866.8000
689.73	860.3000
690.05	867.7000
690.38	881.2000
690.70	879.1000
691.03	876.3000
691.35	877.3000
691.68	873.2000
692.00	875.9000
692.32	885.6000
692.65	881.2000
692.97	872.3000
693.29	849.3000
693.62	844.7000
693.94	854.1000
694.27	846.2000
694.59	832.6000
694.91	841.7000
695.24	823.8000
695.56	810.9000
695.88	829.2000
696.21	829.1000
696.53	834.6000
696.85	840.1000
697.18	833.8000
697.50	820.7000
697.82	822.8000
698.15	806.6000
698.47	798.8000
698.79	794.7000
699.12	790.0000
699.44	768.7000
699.76	778.2000
700.09	776.8000
700.41	772.7000
700.73	765.8000
701.05	774.2000
701.38	780.5000
701.70	784.1000
702.02	783.4000
702.34	777.5000
702.67	778.2000
702.99	777.3000
703.31	771.5000
703.63	770.2000
703.96	758.3000
704.28	752.4000
704.60	738.2000
704.92	743.7000
705.25	748.1000
705.57	759.0000
705.89	773.4000
706.21	794.5000
706.53	804.5000
706.86	805.4000
707.18	808.4000
707.50	810.7000
707.82	791.4000
708.14	786.0000
708.46	786.2000
708.79	761.8000
709.11	769.6000
709.43	767.8000
709.75	758.1000
710.07	757.1000
710.39	755.6000
710.71	747.4000
711.04	739.4000
711.36	733.3000
711.68	735.2000
712.00	736.2000
712.32	745.9000
712.64	740.2000
712.96	744.5000
713.28	743.2000
713.60	745.5000
713.92	740.4000
714.24	744.8000
714.57	736.9000
714.89	731.9000
715.21	723.9000
715.53	710.4000
715.85	705.6000
716.17	705.6000
716.49	699.8000
716.81	695.8000
717.13	700.7000
717.45	696.3000
717.77	695.3000
718.09	698.9000
718.41	696.0000
718.73	690.5000
719.05	692.3000
719.37	680.7000
719.69	693.2000
720.01	692.5000
720.33	687.1000
720.65	685.9000
720.97	684.3000
721.29	677.3000
721.61	680.1000
721.93	669.0000
722.25	664.6000
722.57	666.6000
722.89	665.7000
723.21	670.0000
723.52	659.2000
723.84	647.6000
724.16	664.0000
724.48	666.7000
724.80	671.2000
725.12	664.4000
725.44	661.3000
725.76	658.2000
726.08	658.0000
726.40	651.4000
726.72	656.8000
727.03	660.9000
727.35	658.4000
727.67	650.1000
727.99	645.0000
728.31	648.8000
728.63	646.8000
728.95	657.5000
729.26	654.4000
729.58	660.8000
729.90	667.6000
730.22	661.5000
730.54	669.6000
730.86	676.2000
731.17	674.4000
731.49	662.1000
731.81	658.3000
732.13	656.3000
732.45	651.8000
732.76	650.8000
733.08	655.5000
733.40	660.5000
733.72	661.0000
734.03	658.7000
734.35	651.7000
734.67	650.7000
734.99	643.6000
735.30	648.1000
735.62	641.0000
735.94	645.8000
736.26	640.6000
736.57	632.2000
736.89	639.6000
737.21	618.6000
737.53	616.5000
737.84	615.7000
738.16	621.2000
738.48	626.3000
738.79	630.9000
739.11	621.5000
739.43	609.7000
739.74	595.6000
740.06	584.9000
740.38	578.3000
740.69	575.7000
741.01	571.3000
741.33	572.1000
741.64	573.4000
741.96	567.7000
742.28	568.8000
742.59	552.4000
742.91	556.9000
743.23	548.3000
743.54	552.9000
743.86	547.8000
744.17	545.8000
744.49	541.3000
744.81	538.8000
745.12	533.0000
745.44	529.0000
745.75	529.8000
746.07	529.5000
746.38	525.2000
746.70	525.6000
747.02	531.4000
747.33	524.2000
747.65	521.9000
747.96	519.6000
748.28	518.0000
748.59	523.1000
748.91	524.2000
749.22	532.9000
749.54	531.4000
749.85	540.9000
750.17	530.9000
750.48	522.4000
750.80	519.4000
751.11	519.8000
751.43	518.4000
751.74	517.2000
752.06	513.1000
752.37	515.6000
752.69	517.2000
753.00	516.4000
753.32	522.3000
753.63	518.0000
753.95	514.2000
754.26	510.1000
754.58	519.5000
754.89	520.0000
755.20	516.4000
755.52	519.8000
755.83	525.0000
756.15	533.7000
756.46	536.7000
756.78	541.6000
757.09	544.3000
757.40	543.7000
757.72	533.5000
758.03	521.7000
758.34	514.1000
758.66	519.0000
758.97	518.5000
759.29	515.4000
759.60	520.6000
759.91	516.2000
760.23	518.9000
760.54	516.7000
760.85	501.6000
761.17	492.1000
761.48	488.4000
761.79	479.2000
762.11	478.8000
762.42	482.2000
762.73	488.0000
763.05	483.7000
763.36	496.0000
763.67	498.5000
763.98	501.1000
764.30	504.6000
764.61	503.6000
764.92	492.8000
765.23	481.6000
765.55	464.2000
765.86	458.4000
766.17	458.3000
766.48	447.7000
766.80	442.8000
767.11	451.8000
767.42	448.5000
767.73	459.5000
768.05	464.5000
768.36	472.3000
768.67	473.2000
768.98	459.9000
769.29	461.0000
769.61	459.4000
769.92	450.4000
770.23	456.8000
770.54	452.9000
770.85	453.2000
771.17	446.9000
771.48	438.9000
771.79	438.9000
772.10	432.4000
772.41	433.3000
772.72	428.3000
773.03	421.7000
773.35	414.9000
773.66	408.7000
773.97	409.7000
774.28	410.4000
774.59	404.2000
774.90	404.0000
775.21	403.0000
775.52	399.5000
775.83	398.4000
776.15	390.5000
776.46	393.4000
776.77	390.3000
777.08	391.2000
777.39	395.6000
777.70	392.4000
778.01	396.9000
778.32	403.6000
778.63	404.0000
778.94	400.1000
779.25	397.2000
779.56	387.0000
779.87	384.1000
780.18	388.4000
780.49	398.6000
780.80	407.4000
781.11	401.5000
781.42	395.9000
781.73	392.7000
782.04	383.1000
782.35	380.7000
782.66	384.8000
782.97	383.8000
783.28	380.2000
783.59	377.6000
783.90	369.8000
784.21	362.8000
784.52	365.7000
784.83	363.7000
785.14	362.0000
785.45	365.6000
785.76	359.7000
786.06	358.4000
786.37	359.0000
786.68	354.5000
786.99	356.3000
787.30	359.8000
787.61	359.0000
787.92	358.3000
788.23	351.9000
788.54	354.6000
788.84	348.4000
789.15	341.8000
789.46	338.2000
789.77	329.1000
790.08	333.0000
790.39	327.2000
790.70	331.5000
791.00	332.4000
791.31	324.2000
791.62	320.3000
791.93	319.4000
792.24	317.4000
792.54	314.0000
792.85	315.1000
793.16	321.4000
793.47	328.9000
793.78	333.1000
794.08	333.2000
794.39	328.3000
794.70	327.4000
795.01	318.3000
795.31	313.2000
795.62	305.2000
795.93	305.6000
796.24	304.6000
796.54	299.2000
796.85	302.6000
797.16	297.3000
797.47	297.7000
797.77	296.6000
798.08	298.1000
798.39	296.0000
798.69	294.0000
799.00	289.1000
799.31	289.0000
799.62	284.9000
799.92	288.2000
800.23	289.3000
800.54	290.1000
800.84	286.9000
801.15	286.8000
801.46	280.5000
801.76	281.9000
802.07	275.8000
802.37	278.6000
802.68	280.3000
802.99	282.6000
803.29	277.4000
803.60	277.1000
803.91	272.1000
804.21	270.3000
804.52	271.9000
804.82	272.2000
805.13	272.6000
805.44	276.4000
805.74	278.9000
806.05	278.6000
806.35	275.0000
806.66	268.9000
806.96	268.8000
807.27	265.2000
807.57	264.1000
807.88	260.1000
808.19	258.4000
808.49	254.9000
808.80	253.7000
809.10	251.1000
809.41	253.0000
809.71	248.1000
810.02	248.6000
810.32	246.3000
810.63	247.1000
810.93	247.2000
811.24	241.4000
811.54	242.2000
811.85	241.4000
812.15	237.7000
812.45	236.8000
812.76	238.9000
813.06	239.4000
813.37	243.0000
813.67	245.1000
813.98	240.7000
814.28	234.0000
814.58	237.1000
814.89	231.9000
815.19	231.4000
815.50	229.9000
815.80	228.4000
816.11	231.3000
816.41	230.7000
816.71	232.8000
817.02	232.0000
817.32	229.4000
817.62	226.9000
817.93	226.3000
818.23	223.4000
818.53	223.6000
818.84	224.5000
819.14	220.4000
819.44	221.4000
819.75	221.0000
820.05	223.0000
820.35	222.2000
820.66	225.2000
820.96	221.3000
821.26	218.6000
821.57	220.6000
821.87	215.7000
822.17	215.4000
822.48	215.0000
822.78	216.8000
823.08	213.2000
823.38	214.0000
823.69	211.1000
823.99	214.7000
824.29	210.8000
824.59	210.8000
824.90	214.9000
825.20	212.0000
825.50	212.3000
825.80	210.9000
826.10	213.2000
826.41	211.8000
826.71	210.9000
827.01	214.5000
827.31	210.5000
827.61	209.0000
827.92	209.6000
828.22	206.2000
828.52	204.4000
828.82	204.1000
829.12	203.6000
829.42	201.4000
829.73	201.3000
830.03	197.6000
830.33	198.9000
830.63	194.1000
830.93	195.0000
831.23	193.8000
831.53	192.1000
831.83	190.1000
832.14	188.9000
832.44	192.0000
832.74	190.7000
833.04	190.4000
833.34	191.3000
833.64	189.4000
833.94	188.9000
834.24	191.4000
834.54	192.9000
834.84	189.3000
835.14	187.4000
835.44	186.4000
835.74	183.6000
836.04	183.3000
836.34	185.4000
836.64	184.9000
836.95	182.8000
837.25	180.6000
837.55	182.1000
837.85	180.8000
838.15	179.6000
838.45	177.8000
838.74	179.4000
839.04	177.8000
839.34	178.3000
839.64	175.9000
839.94	174.5000
840.24	175.6000
840.54	176.7000
840.84	175.8000
841.14	173.7000
841.44	173.8000
841.74	174.7000
842.04	174.0000
842.34	170.8000
842.64	171.1000
842.94	172.4000
843.24	173.2000
843.53	171.8000
843.83	171.3000
844.13	168.7000
844.43	168.8000
844.73	169.2000
845.03	168.7000
845.33	165.8000
845.63	167.1000
845.92	167.5000
846.22	166.8000
846.52	164.8000
846.82	166.3000
847.12	164.7000
847.42	164.2000
847.71	161.8000
848.01	164.4000
848.31	161.7000
848.61	162.2000
848.91	160.3000
849.20	160.5000
849.50	159.7000
849.80	158.4000
850.10	159.9000
850.39	159.5000
850.69	161.9000
850.99	158.7000
851.29	156.3000
851.59	157.8000
851.88	158.4000
852.18	155.8000
852.48	159.6000
852.77	158.2000
853.07	158.9000
853.37	160.5000
853.67	158.8000
853.96	157.3000
854.26	158.3000
854.56	157.0000
854.85	156.1000
855.15	154.3000
855.45	152.0000
855.74	154.0000
856.04	153.2000
856.34	154.2000
856.63	153.3000
856.93	150.8000
857.23	149.0000
857.52	146.3000
857.82	146.4000
858.11	146.1000
858.41	143.7000
858.71	145.2000
859.00	144.6000
859.30	145.4000
859.59	143.1000
859.89	142.7000
860.19	140.5000
860.48	141.7000
860.78	143.4000
861.07	141.2000
861.37	140.2000
861.66	140.6000
861.96	141.9000
862.26	141.0000
862.55	141.5000
862.85	140.4000
863.14	142.4000
863.44	140.0000
863.73	136.8000
864.03	140.4000
864.32	136.8000
864.62	138.7000
864.91	137.5000
865.21	137.0000
865.50	136.7000
865.80	136.5000
866.09	134.5000
866.39	138.0000
866.68	135.7000
866.97	134.4000
867.27	134.1000
867.56	133.4000
867.86	131.9000
868.15	132.2000
868.45	131.7000
868.74	130.6000
869.03	130.0000
869.33	131.6000
869.62	128.3000
869.92	127.8000
870.21	128.1000
870.50	128.3000
870.80	127.4000
871.09	129.5000
871.39	128.3000
871.68	125.6000
871.97	124.5000
872.27	125.7000
872.56	123.9000
872.85	126.2000
873.15	126.0000
873.44	123.2000
873.73	124.8000
874.03	121.3000
874.32	122.6000
874.61	122.9000
874.90	123.7000
875.20	123.8000
875.49	121.5000
875.78	122.1000