OOIBase32 Version 1.0.0.8 Data File
++++++++++++++++++++++++++++++++++++
Date: Wednesday, January 16, 1980, 02:38:16
User: Valued Ocean Optics Customer
Spectrometer Serial Number: Unknown
Spectrometer Channel: Master
Integration Time (msec): 3
Spectra Averaged: 10
Boxcar Smoothing: 0
Correct for Electrical Dark: Disabled
Time Normalized: Disabled
Dual-beam Reference: Disabled
Reference Channel: Master
>>>>>Begin Spectral Data<<<<<
179.00	0.0000
179.38	0.0000
179.75	69.9000
180.13	71.5000
180.51	71.3000
180.88	71.2000
181.26	71.1000
181.64	72.6000
182.02	71.2000
182.39	72.9000
182.77	71.8000
183.15	72.6000
183.52	71.1000
183.90	72.6000
184.28	71.1000
184.65	71.5000
185.03	70.6000
185.41	70.9000
185.78	70.8000
186.16	71.9000
186.53	71.4000
186.91	71.2000
187.29	71.9000
187.66	70.2000
188.04	71.2000
188.42	70.3000
188.79	71.3000
189.17	71.7000
189.55	73.1000
189.92	73.0000
190.30	72.8000
190.67	71.8000
191.05	72.2000
191.43	71.7000
191.80	72.3000
192.18	73.5000
192.56	72.3000
192.93	71.0000
193.31	71.5000
193.68	71.5000
194.06	71.8000
194.44	71.2000
194.81	73.1000
195.19	72.8000
195.56	70.8000
195.94	72.4000
196.32	72.5000
196.69	72.2000
197.07	72.1000
197.44	73.2000
197.82	71.5000
198.19	71.6000
198.57	70.9000
198.95	72.0000
199.32	72.6000
199.70	72.0000
200.07	73.8000
200.45	72.5000
200.82	72.7000
201.20	73.2000
201.57	72.9000
201.95	72.3000
202.33	69.7000
202.70	72.7000
203.08	72.4000
203.45	72.3000
203.83	71.6000
204.20	71.5000
204.58	71.2000
204.95	71.7000
205.33	71.6000
205.70	72.7000
206.08	70.3000
206.45	72.8000
206.83	72.7000
207.20	72.8000
207.58	73.8000
207.95	73.4000
208.33	72.3000
208.70	72.0000
209.08	72.1000
209.45	71.9000
209.83	72.5000
210.20	73.4000
210.58	74.0000
210.95	73.0000
211.33	71.9000
211.70	70.3000
212.08	72.8000
212.45	71.5000
212.83	72.2000
213.20	72.8000
213.58	73.2000
213.95	73.0000
214.33	72.6000
214.70	73.1000
215.07	73.7000
215.45	72.1000
215.82	71.4000
216.20	73.2000
216.57	71.7000
216.95	72.2000
217.32	72.3000
217.70	73.0000
218.07	72.5000
218.44	72.8000
218.82	72.3000
219.19	72.6000
219.57	71.8000
219.94	72.3000
220.32	72.7000
220.69	71.9000
221.06	73.1000
221.44	71.3000
221.81	72.7000
222.19	72.8000
222.56	72.7000
222.93	71.3000
223.31	72.3000
223.68	72.9000
224.06	73.7000
224.43	73.0000
224.80	73.5000
225.18	72.3000
225.55	73.7000
225.92	72.2000
226.30	72.3000
226.67	73.0000
227.05	73.4000
227.42	74.8000
227.79	73.0000
228.17	73.3000
228.54	71.6000
228.91	71.7000
229.29	72.7000
229.66	74.5000
230.03	73.2000
230.41	71.3000
230.78	73.3000
231.15	73.7000
231.53	74.0000
231.90	72.6000
232.27	73.2000
232.65	72.4000
233.02	73.1000
233.39	73.3000
233.77	73.3000
234.14	73.2000
234.51	73.2000
234.89	73.3000
235.26	73.4000
235.63	73.6000
236.01	74.6000
236.38	73.4000
236.75	72.0000
237.12	73.3000
237.50	73.1000
237.87	73.6000
238.24	72.9000
238.62	72.6000
238.99	71.7000
239.36	70.2000
239.73	72.1000
240.11	72.3000
240.48	71.5000
240.85	72.1000
241.23	72.6000
241.60	73.2000
241.97	73.5000
242.34	71.8000
242.72	72.4000
243.09	72.6000
243.46	72.9000
243.83	72.9000
244.21	71.9000
244.58	73.5000
244.95	73.6000
245.32	72.0000
245.70	72.9000
246.07	72.4000
246.44	72.1000
246.81	73.7000
247.18	72.7000
247.56	72.4000
247.93	71.4000
248.30	75.2000
248.67	74.2000
249.04	72.0000
249.42	73.5000
249.79	72.5000
250.16	72.8000
250.53	70.7000
250.90	71.9000
251.28	72.5000
251.65	72.7000
252.02	72.6000
252.39	73.4000
252.76	72.0000
253.14	72.0000
253.51	72.3000
253.88	70.9000
254.25	72.5000
254.62	72.4000
254.99	72.5000
255.37	73.2000
255.74	73.5000
256.11	73.6000
256.48	73.5000
256.85	73.1000
257.22	72.3000
257.59	73.0000
257.97	73.2000
258.34	75.4000
258.71	74.9000
259.08	73.5000
259.45	74.2000
259.82	74.4000
260.19	74.2000
260.56	75.8000
260.94	73.6000
261.31	75.3000
261.68	75.1000
262.05	76.3000
262.42	76.5000
262.79	76.3000
263.16	77.5000
263.53	76.7000
263.90	77.8000
264.28	77.2000
264.65	76.8000
265.02	79.1000
265.39	80.4000
265.76	80.2000
266.13	79.8000
266.50	80.6000
266.87	80.2000
267.24	80.1000
267.61	80.3000
267.98	80.5000
268.35	81.1000
268.72	83.5000
269.09	82.2000
269.46	83.7000
269.84	84.9000
270.21	84.2000
270.58	83.7000
270.95	84.0000
271.32	83.3000
271.69	84.2000
272.06	85.2000
272.43	85.0000
272.80	84.5000
273.17	86.2000
273.54	88.0000
273.91	86.9000
274.28	86.5000
274.65	86.1000
275.02	88.2000
275.39	86.5000
275.76	86.6000
276.13	87.5000
276.50	88.8000
276.87	86.1000
277.24	90.1000
277.61	87.4000
277.98	89.1000
278.35	88.2000
278.72	89.1000
279.09	88.8000
279.46	89.5000
279.83	90.5000
280.20	88.1000
280.57	90.5000
280.94	90.3000
281.31	89.9000
281.67	88.5000
282.04	92.4000
282.41	91.6000
282.78	92.8000
283.15	90.3000
283.52	91.1000
283.89	95.1000
284.26	92.5000
284.63	92.9000
285.00	93.1000
285.37	94.4000
285.74	94.8000
286.11	93.4000
286.48	93.7000
286.85	95.6000
287.21	93.0000
287.58	95.3000
287.95	93.3000
288.32	95.1000
288.69	94.7000
289.06	95.6000
289.43	97.0000
289.80	97.4000
290.17	97.8000
290.54	96.3000
290.90	96.2000
291.27	98.1000
291.64	97.6000
292.01	96.5000
292.38	97.4000
292.75	98.7000
293.12	98.1000
293.48	99.1000
293.85	98.9000
294.22	98.1000
294.59	100.0000
294.96	97.2000
295.33	97.9000
295.70	97.0000
296.06	97.4000
296.43	99.3000
296.80	97.3000
297.17	98.8000
297.54	99.3000
297.91	98.9000
298.27	100.1000
298.64	100.6000
299.01	101.8000
299.38	101.7000
299.75	99.5000
300.11	99.3000
300.48	100.6000
300.85	103.2000
301.22	102.8000
301.59	100.7000
301.95	100.2000
302.32	99.3000
302.69	100.7000
303.06	100.6000
303.43	102.4000
303.79	105.1000
304.16	103.3000
304.53	102.9000
304.90	103.4000
305.26	103.1000
305.63	104.1000
306.00	105.6000
306.37	104.9000
306.73	104.1000
307.10	106.2000
307.47	106.7000
307.84	103.6000
308.20	103.7000
308.57	104.3000
308.94	104.1000
309.31	106.4000
309.67	104.1000
310.04	105.4000
310.41	106.7000
310.77	106.1000
311.14	103.5000
311.51	105.0000
311.88	105.4000
312.24	106.0000
312.61	105.6000
312.98	107.3000
313.34	106.8000
313.71	108.7000
314.08	108.1000
314.44	107.4000
314.81	106.9000
315.18	106.6000
315.55	109.7000
315.91	108.0000
316.28	108.7000
316.65	107.2000
317.01	109.1000
317.38	109.8000
317.75	107.0000
318.11	107.9000
318.48	105.7000
318.84	107.6000
319.21	110.6000
319.58	109.4000
319.94	111.5000
320.31	110.9000
320.68	111.9000
321.04	113.6000
321.41	112.2000
321.78	112.3000
322.14	111.3000
322.51	112.2000
322.87	112.5000
323.24	111.5000
323.61	112.7000
323.97	111.5000
324.34	112.0000
324.70	114.4000
325.07	113.9000
325.44	112.2000
325.80	113.0000
326.17	113.3000
326.53	116.1000
326.90	113.9000
327.27	114.8000
327.63	115.3000
328.00	115.9000
328.36	113.8000
328.73	118.4000
329.09	115.2000
329.46	116.2000
329.83	116.7000
330.19	118.8000
330.56	117.8000
330.92	118.8000
331.29	119.0000
331.65	119.6000
332.02	117.4000
332.38	117.7000
332.75	119.9000
333.11	118.3000
333.48	120.5000
333.84	122.1000
334.21	120.5000
334.58	122.0000
334.94	120.8000
335.31	120.4000
335.67	120.8000
336.04	121.2000
336.40	120.6000
336.77	121.7000
337.13	120.8000
337.50	123.4000
337.86	122.3000
338.22	124.7000
338.59	123.1000
338.95	123.7000
339.32	126.0000
339.68	124.2000
340.05	122.7000
340.41	125.8000
340.78	125.5000
341.14	125.8000
341.51	126.0000
341.87	127.1000
342.24	127.7000
342.60	129.0000
342.96	128.6000
343.33	128.2000
343.69	129.1000
344.06	133.5000
344.42	133.5000
344.79	132.4000
345.15	134.4000
345.51	133.5000
345.88	136.3000
346.24	137.1000
346.61	135.9000
346.97	139.1000
347.34	138.4000
347.70	142.9000
348.06	138.9000
348.43	143.8000
348.79	143.3000
349.16	142.6000
349.52	144.7000
349.88	142.7000
350.25	146.0000
350.61	144.6000
350.97	146.4000
351.34	145.5000
351.70	148.3000
352.07	146.5000
352.43	145.8000
352.79	146.9000
353.16	151.0000
353.52	150.6000
353.88	150.8000
354.25	151.2000
354.61	152.7000
354.97	152.7000
355.34	152.4000
355.70	154.7000
356.06	154.6000
356.43	158.3000
356.79	155.9000
357.15	159.2000
357.52	159.4000
357.88	158.1000
358.24	162.0000
358.60	161.5000
358.97	162.1000
359.33	163.7000
359.69	164.9000
360.06	166.1000
360.42	169.5000
360.78	170.2000
361.14	174.9000
361.51	171.3000
361.87	175.2000
362.23	177.7000
362.60	180.1000
362.96	177.9000
363.32	176.6000
363.68	182.8000
364.05	183.9000
364.41	184.9000
364.77	190.7000
365.13	186.2000
365.50	188.9000
365.86	192.4000
366.22	196.0000
366.58	193.7000
366.95	197.1000
367.31	196.0000
367.67	202.8000
368.03	197.2000
368.39	201.8000
368.76	200.5000
369.12	195.4000
369.48	198.1000
369.84	201.2000
370.20	208.3000
370.57	204.6000
370.93	207.4000
371.29	204.5000
371.65	207.1000
372.01	207.8000
372.38	206.1000
372.74	210.7000
373.10	203.2000
373.46	210.4000
373.82	213.3000
374.18	213.7000
374.55	210.8000
374.91	215.7000
375.27	221.0000
375.63	215.9000
375.99	216.0000
376.35	216.9000
376.71	215.4000
377.08	220.5000
377.44	223.4000
377.80	235.7000
378.16	227.4000
378.52	235.1000
378.88	238.2000
379.24	237.2000
379.60	242.6000
379.97	243.3000
380.33	245.8000
380.69	238.0000
381.05	243.0000
381.41	250.2000
381.77	242.9000
382.13	246.6000
382.49	245.3000
382.85	240.3000
383.21	250.5000
383.57	234.6000
383.94	257.3000
384.30	253.1000
384.66	250.4000
385.02	237.9000
385.38	249.1000
385.74	245.8000
386.10	250.8000
386.46	266.8000
386.82	259.8000
387.18	266.2000
387.54	265.6000
387.90	258.3000
388.26	270.0000
388.62	264.5000
388.98	252.7000
389.34	258.2000
389.70	257.3000
390.06	239.2000
390.42	242.3000
390.78	270.6000
391.14	284.5000
391.50	276.2000
391.86	287.9000
392.22	294.4000
392.58	284.1000
392.94	254.6000
393.30	261.5000
393.66	272.9000
394.02	276.5000
394.38	244.9000
394.74	260.0000
395.10	261.2000
395.46	272.5000
395.82	274.9000
396.18	262.8000
396.54	293.7000
396.90	296.4000
397.26	291.4000
397.62	285.0000
397.98	311.6000
398.34	273.3000
398.70	277.0000
399.05	254.5000
399.41	254.9000
399.77	264.1000
400.13	276.8000
400.49	282.2000
400.85	280.4000
401.21	260.6000
401.57	288.2000
401.93	269.0000
402.29	262.0000
402.65	271.8000
403.00	280.9000
403.36	281.1000
403.72	278.8000
404.08	312.5000
404.44	283.9000
404.80	288.6000
405.16	288.6000
405.52	290.4000
405.87	293.9000
406.23	290.9000
406.59	260.5000
406.95	274.1000
407.31	280.5000
407.67	281.6000
408.03	282.0000
408.38	287.6000
408.74	309.7000
409.10	305.0000
409.46	284.6000
409.82	290.3000
410.17	285.5000
410.53	274.0000
410.89	286.7000
411.25	260.0000
411.61	275.0000
411.97	295.0000
412.32	294.1000
412.68	297.1000
413.04	280.6000
413.40	255.2000
413.75	271.5000
414.11	271.0000
414.47	266.1000
414.83	300.0000
415.19	275.7000
415.54	259.4000
415.90	286.6000
416.26	278.7000
416.62	287.1000
416.97	259.2000
417.33	291.5000
417.69	286.1000
418.05	280.0000
418.40	264.7000
418.76	268.2000
419.12	292.9000
419.48	295.9000
419.83	315.0000
420.19	286.6000
420.55	292.9000
420.90	333.5000
421.26	315.8000
421.62	286.0000
421.98	308.8000
422.33	323.4000
422.69	331.2000
423.05	316.8000
423.40	277.9000
423.76	270.8000
424.12	298.8000
424.47	296.0000
424.83	278.0000
425.19	281.7000
425.54	279.8000
425.90	301.6000
426.26	307.2000
426.61	319.8000
426.97	257.5000
427.33	302.7000
427.68	294.6000
428.04	329.6000
428.40	333.3000
428.75	352.2000
429.11	310.1000
429.47	355.4000
429.82	348.4000
430.18	324.4000
430.53	311.7000
430.89	310.0000
431.25	299.0000
431.60	309.8000
431.96	299.6000
432.31	294.9000
432.67	322.3000
433.03	336.9000
433.38	311.9000
433.74	315.4000
434.09	312.8000
434.45	312.6000
434.81	294.4000
435.16	313.3000
435.52	294.0000
435.87	289.1000
436.23	286.8000
436.58	283.8000
436.94	302.0000
437.30	316.6000
437.65	323.7000
438.01	320.6000
438.36	302.2000
438.72	291.7000
439.07	283.5000
439.43	299.5000
439.78	323.3000
440.14	353.0000
440.49	315.0000
440.85	325.6000
441.20	337.3000
441.56	317.9000
441.91	346.7000
442.27	312.1000
442.62	321.4000
442.98	331.6000
443.33	320.0000
443.69	326.0000
444.04	315.9000
444.40	295.6000
444.75	329.2000
445.11	346.3000
445.46	349.1000
445.82	341.8000
446.17	317.5000
446.53	332.7000
446.88	362.4000
447.23	303.1000
447.59	305.8000
447.94	305.6000
448.30	313.1000
448.65	307.4000
449.01	330.0000
449.36	326.7000
449.72	337.1000
450.07	351.4000
450.42	335.1000
450.78	315.9000
451.13	333.2000
451.49	313.8000
451.84	312.1000
452.19	295.9000
452.55	306.5000
452.90	315.8000
453.26	339.3000
453.61	344.1000
453.96	296.0000
454.32	330.5000
454.67	314.3000
455.02	284.8000
455.38	306.8000
455.73	309.4000
456.09	336.9000
456.44	339.2000
456.79	335.9000
457.15	322.8000
457.50	316.6000
457.85	320.3000
458.21	324.7000
458.56	325.6000
458.91	313.4000
459.27	296.3000
459.62	313.4000
459.97	318.9000
460.32	324.1000
460.68	307.5000
461.03	293.2000
461.38	302.3000
461.74	328.9000
462.09	319.8000
462.44	310.1000
462.80	323.4000
463.15	322.9000
463.50	318.4000
463.85	334.4000
464.21	343.7000
464.56	354.7000
464.91	321.5000
465.26	322.2000
465.62	323.7000
465.97	341.3000
466.32	329.1000
466.67	324.9000
467.03	321.0000
467.38	323.5000
467.73	319.7000
468.08	331.2000
468.44	329.6000
468.79	314.9000
469.14	304.6000
469.49	315.3000
469.85	317.7000
470.20	346.6000
470.55	348.5000
470.90	344.3000
471.25	323.6000
471.61	344.6000
471.96	343.7000
472.31	360.3000
472.66	360.6000
473.01	369.1000
473.36	374.9000
473.72	376.4000
474.07	386.1000
474.42	385.8000
474.77	389.2000
475.12	393.2000
475.47	396.6000
475.83	395.4000
476.18	390.9000
476.53	388.2000
476.88	411.2000
477.23	409.4000
477.58	405.0000
477.93	403.6000
478.28	401.1000
478.64	419.1000
478.99	424.8000
479.34	434.5000
479.69	441.5000
480.04	442.1000
480.39	443.2000
480.74	432.7000
481.09	458.2000
481.44	452.8000
481.79	449.1000
482.15	447.3000
482.50	458.3000
482.85	458.4000
483.20	483.7000
483.55	490.0000
483.90	510.1000
484.25	597.8000
484.60	670.1000
484.95	716.9000
485.30	686.0000
485.65	613.5000
486.00	581.5000
486.35	529.9000
486.70	504.1000
487.05	506.1000
487.40	500.5000
487.75	497.4000
488.10	499.4000
488.45	491.5000
488.80	493.8000
489.15	498.7000
489.50	501.6000
489.85	506.3000
490.20	502.0000
490.55	504.1000
490.90	499.0000
491.25	501.8000
491.60	495.5000
491.95	494.3000
492.30	503.6000
492.65	509.6000
493.00	500.3000
493.35	502.6000
493.70	500.8000
494.05	496.4000
494.40	504.5000
494.75	516.3000
495.10	517.4000
495.45	518.9000
495.80	521.9000
496.15	512.2000
496.50	505.1000
496.84	498.7000
497.19	500.7000
497.54	505.4000
497.89	514.0000
498.24	512.0000
498.59	519.7000
498.94	513.8000
499.29	510.6000
499.64	511.2000
499.99	518.6000
500.33	521.9000
500.68	523.8000
501.03	522.4000
501.38	522.8000
501.73	525.4000
502.08	522.8000
502.43	524.8000
502.77	521.4000
503.12	519.2000
503.47	516.1000
503.82	518.7000
504.17	511.4000
504.52	520.1000
504.86	522.4000
505.21	529.7000
505.56	527.4000
505.91	517.3000
506.26	517.2000
506.61	520.5000
506.95	523.9000
507.30	522.9000
507.65	529.8000
508.00	524.4000
508.35	523.2000
508.69	525.1000
509.04	528.7000
509.39	524.1000
509.74	524.4000
510.08	526.8000
510.43	528.4000
510.78	526.1000
511.13	523.0000
511.47	525.0000
511.82	527.4000
512.17	520.4000
512.52	527.5000
512.86	532.1000
513.21	529.0000
513.56	526.7000
513.91	525.1000
514.25	522.9000
514.60	522.7000
514.95	527.5000
515.30	526.3000
515.64	528.0000
515.99	531.8000
516.34	532.3000
516.68	530.5000
517.03	529.8000
517.38	531.5000
517.72	541.2000
518.07	535.1000
518.42	537.1000
518.76	537.3000
519.11	535.4000
519.46	538.2000
519.80	531.8000
520.15	528.7000
520.50	532.6000
520.84	536.2000
521.19	530.9000
521.54	535.3000
521.88	527.6000
522.23	532.0000
522.58	529.2000
522.92	537.2000
523.27	536.5000
523.61	535.8000
523.96	536.0000
524.31	542.6000
524.65	544.8000
525.00	543.6000
525.34	535.6000
525.69	537.3000
526.04	544.2000
526.38	544.3000
526.73	540.9000
527.07	547.5000
527.42	545.1000
527.76	550.4000
528.11	555.3000
528.46	551.9000
528.80	548.6000
529.15	544.3000
529.49	542.8000
529.84	539.3000
530.18	545.0000
530.53	546.9000
530.87	545.4000
531.22	541.1000
531.56	541.0000
531.91	550.4000
532.25	553.0000
532.60	554.7000
532.94	553.3000
533.29	550.0000
533.63	550.3000
533.98	547.8000
534.32	547.9000
534.67	556.8000
535.01	551.2000
535.36	539.4000
535.70	547.4000
536.05	547.9000
536.39	553.2000
536.74	553.5000
537.08	554.5000
537.43	553.9000
537.77	563.3000
538.12	563.2000
538.46	562.4000
538.80	560.8000
539.15	559.8000
539.49	559.6000
539.84	568.8000
540.18	561.3000
540.53	561.1000
540.87	559.4000
541.21	568.2000
541.56	564.6000
541.90	562.5000
542.25	561.7000
542.59	557.7000
542.93	561.1000
543.28	558.5000
543.62	564.4000
543.97	566.0000
544.31	566.8000
544.65	560.7000
545.00	563.8000
545.34	565.0000
545.68	564.5000
546.03	563.1000
546.37	579.8000
546.71	584.9000
547.06	588.5000
547.40	587.6000
547.74	584.0000
548.09	572.9000
548.43	567.8000
548.77	562.6000
549.12	563.2000
549.46	556.1000
549.80	561.2000
550.15	562.4000
550.49	566.4000
550.83	569.8000
551.17	578.1000
551.52	577.8000
551.86	571.5000
552.20	572.9000
552.55	578.8000
552.89	576.8000
553.23	568.3000
553.57	573.6000
553.92	572.0000
554.26	580.7000
554.60	576.3000
554.94	580.0000
555.29	581.9000
555.63	578.9000
555.97	575.4000
556.31	580.6000
556.66	579.4000
557.00	570.9000
557.34	573.1000
557.68	573.9000
558.02	571.6000
558.37	581.7000
558.71	583.4000
559.05	585.6000
559.39	596.7000
559.73	601.6000
560.08	599.5000
560.42	600.5000
560.76	593.1000
561.10	585.6000
561.44	582.9000
561.78	586.4000
562.13	589.3000
562.47	587.1000
562.81	591.3000
563.15	594.7000
563.49	592.9000
563.83	598.4000
564.17	596.7000
564.52	590.9000
564.86	589.8000
565.20	587.3000
565.54	593.2000
565.88	597.2000
566.22	604.8000
566.56	605.9000
566.90	614.2000
567.24	626.8000
567.59	631.2000
567.93	646.0000
568.27	659.4000
568.61	673.8000
568.95	675.8000
569.29	683.9000
569.63	691.7000
569.97	709.0000
570.31	712.0000
570.65	726.4000
570.99	724.8000
571.33	720.4000
571.67	712.9000
572.01	727.7000
572.35	744.8000
572.69	756.9000
573.03	761.2000
573.37	781.3000
573.71	776.4000
574.05	763.1000
574.39	748.6000
574.73	748.4000
575.07	745.7000
575.41	752.3000
575.75	753.0000
576.09	782.0000
576.43	810.4000
576.77	838.6000
577.11	830.3000
577.45	805.9000
577.79	773.2000
578.13	767.3000
578.47	758.1000
578.81	762.7000
579.15	755.7000
579.49	767.2000
579.83	820.9000
580.17	866.0000
580.51	909.7000
580.85	909.6000
581.19	864.6000
581.53	821.9000
581.87	778.3000
582.20	736.9000
582.54	714.9000
582.88	708.0000
583.22	723.5000
583.56	752.3000
583.90	783.1000
584.24	798.8000
584.58	788.2000
584.92	770.3000
585.25	746.9000
585.59	738.6000
585.93	744.1000
586.27	750.4000
586.61	738.8000
586.95	745.7000
587.29	735.1000
587.62	708.3000
587.96	695.2000
588.30	681.4000
588.64	673.9000
588.98	663.6000
589.31	660.7000
589.65	649.6000
589.99	634.4000
590.33	644.1000
590.67	639.9000
591.01	650.5000
591.34	684.5000
591.68	712.4000
592.02	743.7000
592.36	733.1000
592.69	718.3000
593.03	701.2000
593.37	694.9000
593.71	692.5000
594.04	696.8000
594.38	694.7000
594.72	683.8000
595.06	668.8000
595.39	660.1000
595.73	653.6000
596.07	664.8000
596.41	658.5000
596.74	660.3000
597.08	662.9000
597.42	681.9000
597.76	696.3000
598.09	703.3000
598.43	700.8000
598.77	700.5000
599.10	705.3000
599.44	703.7000
599.78	697.7000
600.11	692.6000
600.45	686.4000
600.79	661.9000
601.12	668.3000
601.46	665.5000
601.80	682.2000
602.13	681.8000
602.47	682.1000
602.81	683.3000
603.14	668.9000
603.48	660.2000
603.82	656.8000
604.15	651.6000
604.49	667.8000
604.82	665.2000
605.16	656.4000
605.50	651.7000
605.83	663.8000
606.17	666.6000
606.50	665.3000
606.84	657.3000
607.18	651.4000
607.51	646.8000
607.85	645.5000
608.18	633.9000
608.52	637.8000
608.86	642.8000
609.19	648.8000
609.53	633.8000
609.86	636.4000
610.20	636.0000
610.53	627.5000
610.87	617.5000
611.20	629.0000
611.54	613.2000
611.87	613.3000
612.21	615.8000
612.54	610.9000
612.88	610.8000
613.21	616.8000
613.55	624.0000
613.88	624.3000
614.22	629.1000
614.55	615.7000
614.89	611.7000
615.22	601.7000
615.56	593.0000
615.89	594.3000
616.23	590.9000
616.56	580.5000
616.90	582.8000
617.23	579.1000
617.57	577.9000
617.90	571.2000
618.24	573.9000
618.57	575.9000
618.90	571.1000
619.24	571.2000
619.57	560.6000
619.91	558.5000
620.24	543.0000
620.58	553.7000
620.91	567.4000
621.24	565.2000
621.58	573.5000
621.91	574.6000
622.25	578.6000
622.58	569.5000
622.91	573.2000
623.25	567.3000
623.58	567.2000
623.91	557.4000
624.25	556.9000
624.58	547.4000
624.92	545.8000
625.25	542.2000
625.58	536.8000
625.92	541.7000
626.25	538.8000
626.58	538.2000
626.92	531.4000
627.25	530.0000
627.58	522.9000
627.91	528.3000
628.25	528.6000
628.58	527.3000
628.91	529.0000
629.25	524.6000
629.58	520.7000
629.91	516.6000
630.25	515.6000
630.58	507.5000
630.91	502.8000
631.24	503.3000
631.58	497.7000
631.91	500.3000
632.24	491.9000
632.57	494.5000
632.91	494.9000
633.24	488.8000
633.57	491.2000
633.90	489.9000
634.24	488.3000
634.57	491.2000
634.90	493.8000
635.23	491.1000
635.56	493.8000
635.90	492.5000
636.23	489.4000
636.56	485.8000
636.89	486.5000
637.22	484.2000
637.56	488.0000
637.89	476.6000
638.22	481.9000
638.55	482.1000
638.88	473.2000
639.21	476.0000
639.55	472.2000
639.88	470.3000
640.21	470.2000
640.54	465.5000
640.87	462.0000
641.20	463.5000
641.53	462.4000
641.87	461.6000
642.20	462.6000
642.53	463.7000
642.86	466.9000
643.19	463.1000
643.52	459.4000
643.85	462.8000
644.18	460.1000
644.51	455.2000
644.84	459.7000
645.18	454.7000
645.51	451.4000
645.84	453.1000
646.17	452.3000
646.50	457.0000
646.83	463.4000
647.16	461.2000
647.49	470.7000
647.82	469.1000
648.15	470.5000
648.48	468.3000
648.81	466.5000
649.14	455.8000
649.47	460.2000
649.80	453.4000
650.13	451.3000
650.46	455.0000
650.79	456.0000
651.12	457.4000
651.45	458.5000
651.78	458.2000
652.11	458.6000
652.44	457.9000
652.77	456.3000
653.10	453.2000
653.43	456.0000
653.76	454.5000
654.09	479.8000
654.42	796.8000
654.75	1237.9000
655.08	1492.1000
655.41	1518.6000
655.74	1194.8000
656.07	978.1000
656.39	836.7000
656.72	712.5000
657.05	600.3000
657.38	523.5000
657.71	481.8000
658.04	461.8000
658.37	452.6000
658.70	448.5000
659.03	442.8000
659.36	441.7000
659.68	437.0000
660.01	438.4000
660.34	440.5000
660.67	441.6000
661.00	441.8000
661.33	436.0000
661.66	435.3000
661.98	432.5000
662.31	428.9000
662.64	429.5000
662.97	432.2000
663.30	427.3000
663.63	427.0000
663.95	426.0000
664.28	425.1000
664.61	426.6000
664.94	427.0000
665.27	425.0000
665.59	418.3000
665.92	416.9000
666.25	413.5000
666.58	415.0000
666.91	422.2000
667.23	412.1000
667.56	415.8000
667.89	417.7000
668.22	418.9000
668.54	420.3000
668.87	427.1000
669.20	425.0000
669.53	421.5000
669.85	418.8000
670.18	419.1000
670.51	421.2000
670.83	429.1000
671.16	433.2000
671.49	431.9000
671.82	429.2000
672.14	424.6000
672.47	420.9000
672.80	419.5000
673.12	414.6000
673.45	419.5000
673.78	406.0000
674.10	414.4000
674.43	411.2000
674.76	409.9000
675.08	411.3000
675.41	408.4000
675.74	410.9000
676.06	412.8000
676.39	407.2000
676.72	409.8000
677.04	416.6000
677.37	414.4000
677.69	411.4000
678.02	410.1000
678.35	411.9000
678.67	409.5000
679.00	416.9000
679.32	417.3000
679.65	409.8000
679.98	408.5000
680.30	407.4000
680.63	408.4000
680.95	405.1000
681.28	399.5000
681.60	393.8000
681.93	389.4000
682.26	391.0000
682.58	391.7000
682.91	394.0000
683.23	389.7000
683.56	395.6000
683.88	403.5000
684.21	405.4000
684.53	409.7000
684.86	408.1000
685.18	404.8000
685.51	401.9000
685.83	397.7000
686.16	392.0000
686.48	391.7000
686.81	389.4000
687.13	389.2000
687.46	381.3000
687.78	384.1000
688.11	376.6000
688.43	374.0000
688.76	379.8000
689.08	376.7000
689.41	375.5000
689.73	373.1000
690.05	378.4000
690.38	378.7000
690.70	380.7000
691.03	377.7000
691.35	378.1000
691.68	378.1000
692.00	377.8000
692.32	377.6000
692.65	379.2000
692.97	376.9000
693.29	370.2000
693.62	368.2000
693.94	370.5000
694.27	364.2000
694.59	360.2000
694.91	365.2000
695.24	361.3000
695.56	352.9000
695.88	358.5000
696.21	361.4000
696.53	364.4000
696.85	368.1000
697.18	363.4000
697.50	360.8000
697.82	364.1000
698.15	357.1000
698.47	354.2000
698.79	354.8000
699.12	353.9000
699.44	345.3000
699.76	346.7000
700.09	342.2000
700.41	342.5000
700.73	340.4000
701.05	346.5000
701.38	343.4000
701.70	345.4000
702.02	345.6000
702.34	342.2000
702.67	342.3000
702.99	340.6000
703.31	338.3000
703.63	341.5000
703.96	337.7000
704.28	336.6000
704.60	331.6000
704.92	335.0000
705.25	332.7000
705.57	339.9000
705.89	349.5000
706.21	354.1000
706.53	354.3000
706.86	353.6000
707.18	355.3000
707.50	354.7000
707.82	348.7000
708.14	347.9000
708.46	348.2000
708.79	338.5000
709.11	341.5000
709.43	338.0000
709.75	337.3000
710.07	335.8000
710.39	336.9000
710.71	332.0000
711.04	328.2000
711.36	327.3000
711.68	323.4000
712.00	327.6000
712.32	328.5000
712.64	327.8000
712.96	327.9000
713.28	326.0000
713.60	329.4000
713.92	326.6000
714.24	326.1000
714.57	323.2000
714.89	324.9000
715.21	319.6000
715.53	316.4000
715.85	318.2000
716.17	315.6000
716.49	316.4000
716.81	319.4000
717.13	317.9000
717.45	315.1000
717.77	314.7000
718.09	314.3000
718.41	315.3000
718.73	312.6000
719.05	309.3000
719.37	303.6000
719.69	307.2000
720.01	308.9000
720.33	306.2000
720.65	303.9000
720.97	304.8000
721.29	301.9000
721.61	303.0000
721.93	301.2000
722.25	299.6000
722.57	296.7000
722.89	298.6000
723.21	296.5000
723.52	299.2000
723.84	297.9000
724.16	299.0000
724.48	299.5000
724.80	305.8000
725.12	304.4000
725.44	302.8000
725.76	301.2000
726.08	301.0000
726.40	299.7000
726.72	295.7000
727.03	300.5000
727.35	294.3000
727.67	292.7000
727.99	293.9000
728.31	294.4000
728.63	291.6000
728.95	290.5000
729.26	292.9000
729.58	292.9000
729.90	294.3000
730.22	295.1000
730.54	298.1000
730.86	299.5000
731.17	298.6000
731.49	294.5000
731.81	292.3000
732.13	292.5000
732.45	288.6000
732.76	289.4000
733.08	290.5000
733.40	296.8000
733.72	293.0000
734.03	292.6000
734.35	295.8000
734.67	295.7000
734.99	292.5000
735.30	291.8000
735.62	291.6000
735.94	290.6000
736.26	287.2000
736.57	287.3000
736.89	286.9000
737.21	281.7000
737.53	278.3000
737.84	281.4000
738.16	282.4000
738.48	281.9000
738.79	286.5000
739.11	284.3000
739.43	278.5000
739.74	275.1000
740.06	273.4000
740.38	267.7000
740.69	266.0000
741.01	263.9000
741.33	261.4000
741.64	263.4000
741.96	262.3000
742.28	259.0000
742.59	256.6000
742.91	258.6000
743.23	253.1000
743.54	255.6000
743.86	249.9000
744.17	250.2000
744.49	251.2000
744.81	251.8000
745.12	246.5000
745.44	243.4000
745.75	243.7000
746.07	245.2000
746.38	246.9000
746.70	245.7000
747.02	244.7000
747.33	242.1000
747.65	244.5000
747.96	243.0000
748.28	242.1000
748.59	242.4000
748.91	243.9000
749.22	252.0000
749.54	248.8000
749.85	248.0000
750.17	244.6000
750.48	242.8000
750.80	240.8000
751.11	240.4000
751.43	240.3000
751.74	243.4000
752.06	241.3000
752.37	240.5000
752.69	239.2000
753.00	241.7000
753.32	241.5000
753.63	242.1000
753.95	240.0000
754.26	238.1000
754.58	237.9000
754.89	240.0000
755.20	243.0000
755.52	242.6000
755.83	247.1000
756.15	248.7000
756.46	251.8000
756.78	253.6000
757.09	254.2000
757.40	254.1000
757.72	248.0000
758.03	245.9000
758.34	242.2000
758.66	246.3000
758.97	247.1000
759.29	244.3000
759.60	247.3000
759.91	246.3000
760.23	248.1000
760.54	250.8000
760.85	244.4000
761.17	240.3000
761.48	236.3000
761.79	235.3000
762.11	234.6000
762.42	238.2000
762.73	236.4000
763.05	237.8000
763.36	241.0000
763.67	240.9000
763.98	244.3000
764.30	243.6000
764.61	243.2000
764.92	238.7000
765.23	237.3000
765.55	229.7000
765.86	227.7000
766.17	227.4000
766.48	227.5000
766.80	219.7000
767.11	223.8000
767.42	222.7000
767.73	223.5000
768.05	228.3000
768.36	228.8000
768.67	226.9000
768.98	225.2000
769.29	225.1000
769.61	222.8000
769.92	221.5000
770.23	221.0000
770.54	218.5000
770.85	220.6000
771.17	217.8000
771.48	216.2000
771.79	217.9000
772.10	215.2000
772.41	214.2000
772.72	211.1000
773.03	208.9000
773.35	206.3000
773.66	205.8000
773.97	205.2000
774.28	202.9000
774.59	201.6000
774.90	204.7000
775.21	205.6000
775.52	201.2000
775.83	202.8000
776.15	202.4000
776.46	200.0000
776.77	201.6000
777.08	198.2000
777.39	200.1000
777.70	198.8000
778.01	200.1000
778.32	201.3000
778.63	204.9000
778.94	202.1000
779.25	198.6000
779.56	197.7000
779.87	196.5000
780.18	197.4000
780.49	199.6000
780.80	202.9000
781.11	201.6000
781.42	198.9000
781.73	195.5000
782.04	197.0000
782.35	194.2000
782.66	193.1000
782.97	194.4000
783.28	195.9000
783.59	192.4000
783.90	189.1000
784.21	188.3000
784.52	186.3000
784.83	187.3000
785.14	186.6000
785.45	188.1000
785.76	186.9000
786.06	187.2000
786.37	188.5000
786.68	187.4000
786.99	186.1000
787.30	186.3000
787.61	185.5000
787.92	184.4000
788.23	188.2000
788.54	187.6000
788.84	183.7000
789.15	182.6000
789.46	183.0000
789.77	176.9000
790.08	178.9000
790.39	176.5000
790.70	176.3000
791.00	175.4000
791.31	173.3000
791.62	174.0000
791.93	171.7000
792.24	171.3000
792.54	171.7000
792.85	171.6000
793.16	174.1000
793.47	177.7000
793.78	178.5000
794.08	177.7000
794.39	173.7000
794.70	172.3000
795.01	174.2000
795.31	168.9000
795.62	166.3000
795.93	167.0000
796.24	165.9000
796.54	163.6000
796.85	166.0000
797.16	165.1000
797.47	161.4000
797.77	163.6000
798.08	163.1000
798.39	163.0000
798.69	162.6000
799.00	160.7000
799.31	161.2000
799.62	158.8000
799.92	158.1000
800.23	159.2000
800.54	159.4000
800.84	158.2000
801.15	157.5000
801.46	155.5000
801.76	153.9000
802.07	153.2000
802.37	153.1000
802.68	155.3000
802.99	155.1000
803.29	154.9000
803.60	152.5000
803.91	152.3000
804.21	152.4000
804.52	151.8000
804.82	152.6000
805.13	150.9000
805.44	154.6000
805.74	153.7000
806.05	152.5000
806.35	153.2000
806.66	150.7000
806.96	151.8000
807.27	150.4000
807.57	149.4000
807.88	149.1000
808.19	149.2000
808.49	146.8000
808.80	147.0000
809.10	146.4000
809.41	148.4000
809.71	144.1000
810.02	144.4000
810.32	144.8000
810.63	146.0000
810.93	142.2000
811.24	142.0000
811.54	141.5000
811.85	141.6000
812.15	141.2000
812.45	140.1000
812.76	137.3000
813.06	139.0000
813.37	139.0000
813.67	139.8000
813.98	140.2000
814.28	139.0000
814.58	138.4000
814.89	134.2000
815.19	136.1000
815.50	135.4000
815.80	137.6000
816.11	136.1000
816.41	135.2000
816.71	135.8000
817.02	136.1000
817.32	137.1000
817.62	134.1000
817.93	134.3000
818.23	133.6000
818.53	134.7000
818.84	131.6000
819.14	133.4000
819.44	131.2000
819.75	131.8000
820.05	133.9000
820.35	134.1000
820.66	134.1000
820.96	133.7000
821.26	133.9000
821.57	131.6000
821.87	129.0000
822.17	130.0000
822.48	129.0000
822.78	129.4000
823.08	129.5000
823.38	128.4000
823.69	128.0000
823.99	127.5000
824.29	126.0000
824.59	126.5000
824.90	128.6000
825.20	125.8000
825.50	126.3000
825.80	125.9000
826.10	127.2000
826.41	127.9000
826.71	126.6000
827.01	129.2000
827.31	127.2000
827.61	127.1000
827.92	125.0000
828.22	124.5000
828.52	123.7000
828.82	125.5000
829.12	125.1000
829.42	124.0000
829.73	120.7000
830.03	122.3000
830.33	122.1000
830.63	120.2000
830.93	118.7000
831.23	118.5000
831.53	121.3000
831.83	120.5000
832.14	119.5000
832.44	119.6000
832.74	120.0000
833.04	117.5000
833.34	118.4000
833.64	116.6000
833.94	116.8000
834.24	117.7000
834.54	116.8000
834.84	118.3000
835.14	116.1000
835.44	118.1000
835.74	116.0000
836.04	115.7000
836.34	116.8000
836.64	114.1000
836.95	114.8000
837.25	115.5000
837.55	114.5000
837.85	113.5000
838.15	115.1000
838.45	114.3000
838.74	113.0000
839.04	110.3000
839.34	113.3000
839.64	112.4000
839.94	113.5000
840.24	112.7000
840.54	112.7000
840.84	110.9000
841.14	109.5000
841.44	111.5000
841.74	109.7000
842.04	110.9000
842.34	110.2000
842.64	110.8000
842.94	111.6000
843.24	111.6000
843.53	111.3000
843.83	110.9000
844.13	110.6000
844.43	109.4000
844.73	110.0000
845.03	107.7000
845.33	110.5000
845.63	109.5000
845.92	108.3000
846.22	109.2000
846.52	106.9000
846.82	107.4000
847.12	109.3000
847.42	108.1000
847.71	105.7000
848.01	106.7000
848.31	107.2000
848.61	107.5000
848.91	106.2000
849.20	107.1000
849.50	104.7000
849.80	104.9000
850.10	105.3000
850.39	102.9000
850.69	104.5000
850.99	106.9000
851.29	106.5000
851.59	104.8000
851.88	103.7000
852.18	103.2000
852.48	102.9000
852.77	105.2000
853.07	104.0000
853.37	104.3000
853.67	105.3000
853.96	105.1000
854.26	104.5000
854.56	105.4000
854.85	103.7000
855.15	102.2000
855.45	103.6000
855.74	101.9000
856.04	101.6000
856.34	102.6000
856.63	103.6000
856.93	102.2000
857.23	103.5000
857.52	101.9000
857.82	100.9000
858.11	100.4000
858.41	100.3000
858.71	102.8000
859.00	99.8000
859.30	101.8000
859.59	100.8000
859.89	99.8000
860.19	99.1000
860.48	99.5000
860.78	98.0000
861.07	99.0000
861.37	99.2000
861.66	98.8000
861.96	99.0000
862.26	97.5000
862.55	98.7000
862.85	98.5000
863.14	98.4000
863.44	99.6000
863.73	97.1000
864.03	96.4000
864.32	98.9000
864.62	98.3000
864.91	97.0000
865.21	97.9000
865.50	96.7000
865.80	97.0000
866.09	95.6000
866.39	97.0000
866.68	96.0000
866.97	95.5000
867.27	96.0000
867.56	96.2000
867.86	97.4000
868.15	96.8000
868.45	93.3000
868.74	95.3000
869.03	95.0000
869.33	95.8000
869.62	93.8000
869.92	93.4000
870.21	93.6000
870.50	93.0000
870.80	95.7000
871.09	94.2000
871.39	94.4000
871.68	94.5000
871.97	92.6000
872.27	92.3000
872.56	92.7000
872.85	92.3000
873.15	92.5000
873.44	93.2000
873.73	92.2000
874.03	92.4000
874.32	92.4000
874.61	91.3000
874.90	91.7000
875.20	91.5000
875.49	90.1000
875.78	90.6000